1.550999999999999934e+00	5
1.833499999999999908e+00	2
2.322499999999999787e+00	5
2.805000000000000271e-01	6
1.018000000000000016e+00	4
1.659499999999999975e+00	5
2.109999999999999931e-01	1
1.457999999999999963e+00	3
1.421499999999999986e+00	3
2.404500000000000082e+00	8
1.329499999999999904e+00	3
2.585000000000000075e-01	6
1.389000000000000012e+00	3
8.699999999999999400e-02	6
1.044999999999999957e-01	1
8.870000000000000107e-01	4
1.654500000000000082e+00	5
2.282500000000000195e+00	8
1.215000000000000080e+00	3
1.794999999999999929e+00	2
1.393499999999999961e+00	9
1.247999999999999998e+00	3
1.083499999999999908e+00	5
1.411000000000000032e+00	3
3.315000000000000169e-01	4
-9.134999999999999787e-01	5
1.490499999999999936e+00	9
1.825499999999999901e+00	8
2.347500000000000142e+00	8
5.374999999999999778e-01	7
2.363999999999999879e+00	8
1.385000000000000120e-01	5
1.846999999999999975e+00	2
1.389499999999999957e+00	3
1.536999999999999922e+00	2
1.854500000000000037e+00	2
9.995000000000000551e-01	4
9.809999999999999831e-01	3
1.173499999999999988e+00	3
2.320000000000000118e-01	6
5.580000000000000515e-01	7
1.369499999999999940e+00	9
2.258000000000000007e+00	8
1.104500000000000037e+00	7
2.416500000000000092e+00	8
3.599999999999999728e-02	1
2.446000000000000174e+00	8
1.431499999999999995e+00	9
1.834000000000000075e+00	8
5.895000000000000240e-01	7
1.798999999999999932e+00	2
5.434999999999999831e-01	7
1.553500000000000103e+00	3
8.585000000000000409e-01	4
1.844999999999999973e-01	6
8.250000000000000389e-02	1
1.229500000000000037e+00	3
1.481000000000000094e+00	9
6.250000000000000000e-02	5
8.899999999999999578e-02	1
1.419999999999999873e-01	6
5.494999999999999885e-01	7
1.054999999999999966e-01	1
1.979999999999999982e+00	8
1.897000000000000020e+00	2
8.299999999999999600e-01	4
5.909999999999999698e-01	7
8.949999999999999623e-02	1
1.314000000000000057e+00	3
1.792499999999999982e+00	2
2.680000000000000160e-01	6
8.120000000000000551e-01	4
8.100000000000000255e-02	1
1.473999999999999977e+00	9
3.360000000000000209e-01	5
8.890000000000000124e-01	5
5.434999999999999831e-01	7
1.952499999999999902e+00	8
6.470000000000000195e-01	7
1.344500000000000028e+00	9
1.255500000000000060e+00	3
9.509999999999999565e-01	4
1.864999999999999991e-01	6
7.465000000000000524e-01	4
8.899999999999999578e-02	1
1.562500000000000000e+00	9
1.877499999999999947e+00	2
-1.206499999999999906e+00	4
2.402000000000000135e+00	8
1.034499999999999975e+00	4
1.490499999999999936e+00	9
8.074999999999999956e-01	4
1.014499999999999957e+00	7
8.830000000000000071e-01	4
2.381499999999999950e+00	8
1.660000000000000087e-01	1
2.419999999999999929e-01	6
7.799999999999999989e-02	5
8.195000000000000062e-01	4
-6.274999999999999467e-01	1
9.160000000000000364e-01	4
1.975000000000000089e-01	6
9.835000000000000409e-01	3
1.600000000000000033e-01	6
9.070000000000000284e-01	4
5.570000000000000506e-01	7
1.475500000000000034e+00	3
5.550000000000000072e-02	6
3.415000000000000258e-01	5
1.042000000000000037e+00	7
1.125000000000000028e-01	1
1.727500000000000036e+00	2
1.615000000000000047e-01	1
7.405000000000000471e-01	5
5.080000000000000071e-01	7
1.831499999999999906e+00	8
2.479499999999999815e+00	8
2.349499999999999922e+00	8
8.209999999999999520e-01	4
6.499999999999999702e-03	6
5.190000000000000169e-01	7
2.358999999999999986e+00	8
6.069999999999999840e-01	7
-4.540000000000000147e-01	5
5.789999999999999591e-01	7
1.951000000000000068e+00	2
8.379999999999999671e-01	2
1.524999999999999967e-01	1
1.459999999999999909e-01	1
1.256000000000000005e+00	3
9.650000000000000244e-02	1
1.503500000000000059e+00	3
8.625000000000000444e-01	4
6.444999999999999618e-01	7
6.444999999999999618e-01	7
1.848999999999999977e+00	2
1.590000000000000024e-01	1
1.370500000000000052e+00	3
1.826000000000000068e+00	2
1.499000000000000110e+00	9
2.434000000000000163e+00	5
1.615499999999999936e+00	9
9.199999999999999845e-02	1
5.364999999999999769e-01	7
1.574999999999999956e+00	9
1.879000000000000004e+00	2
1.098500000000000032e+00	4
8.840000000000000080e-01	7
1.824500000000000011e+00	2
1.352500000000000036e+00	9
1.356500000000000039e+00	9
1.863499999999999934e+00	8
-1.750000000000000167e-02	1
2.044999999999999873e-01	6
1.149499999999999966e+00	4
7.970000000000000417e-01	4
5.150000000000000133e-01	7
1.034499999999999975e+00	4
1.814999999999999947e+00	2
1.383000000000000007e+00	3
5.200000000000000178e-01	6
1.897999999999999909e+00	2
1.019999999999999934e-01	1
5.945000000000000284e-01	7
6.600000000000000311e-02	1
2.244000000000000217e+00	8
1.239000000000000101e+00	3
4.874999999999999889e-01	7
1.140500000000000069e+00	4
1.415999999999999925e+00	9
7.814999999999999725e-01	7
1.771500000000000075e+00	8
-1.346999999999999975e+00	5
1.600000000000000033e-02	1
2.525000000000000022e-01	6
1.372999999999999998e+00	9
1.529500000000000082e+00	3
7.499999999999999722e-02	1
1.409999999999999865e-01	1
1.235000000000000098e+00	3
-3.000000000000000062e-03	6
9.465000000000000080e-01	9
1.088999999999999968e+00	5
1.925999999999999934e+00	5
1.776999999999999913e+00	2
5.879999999999999671e-01	7
2.074999999999999900e-01	6
1.035500000000000087e+00	4
5.384999999999999787e-01	7
2.379999999999999893e+00	8
6.245000000000000551e-01	7
8.780000000000000027e-01	4
1.469000000000000083e+00	9
2.354499999999999815e+00	8
1.364500000000000046e+00	9
8.150000000000000300e-02	1
2.264499999999999957e+00	8
1.947500000000000009e+00	5
1.862000000000000099e+00	5
1.514999999999999902e+00	3
9.240000000000000435e-01	9
1.358000000000000096e+00	9
1.600000000000000033e-01	1
1.401000000000000023e+00	9
1.935999999999999943e+00	2
1.890500000000000069e+00	2
2.063499999999999890e+00	8
1.528000000000000025e+00	9
2.464999999999999858e+00	8
8.259999999999999565e-01	4
-1.219999999999999973e-01	4
8.824999999999999512e-01	4
1.030499999999999972e+00	7
8.080000000000000515e-01	4
1.318500000000000005e+00	3
5.310000000000000275e-01	7
9.655000000000000249e-01	5
1.895499999999999963e+00	2
-3.353000000000000203e+00	4
1.030499999999999972e+00	7
1.816500000000000004e+00	2
7.469999999999999973e-01	7
8.299999999999999600e-01	7
2.404999999999999916e-01	6
-5.925000000000000266e-01	5
2.515000000000000013e-01	6
2.144999999999999962e-01	6
9.745000000000000329e-01	4
6.925000000000000044e-01	7
7.740000000000000213e-01	4
1.231000000000000094e+00	3
1.394500000000000073e+00	3
1.231500000000000039e+00	6
1.768000000000000016e+00	2
1.749500000000000055e+00	8
2.429499999999999993e+00	8
2.221000000000000085e+00	8
1.754000000000000004e+00	2
4.839999999999999858e-01	7
1.068000000000000060e+00	4
1.242499999999999938e+00	3
9.650000000000000244e-02	1
1.750499999999999945e+00	2
1.050499999999999989e+00	5
-8.830000000000000071e-01	5
2.994999999999999885e-01	6
1.535500000000000087e+00	2
5.909999999999999698e-01	7
1.183999999999999941e+00	3
1.504999999999999949e-01	1
1.056999999999999940e+00	4
-1.499999999999999944e-02	6
-2.403999999999999915e+00	4
6.274999999999999467e-01	7
1.844999999999999973e+00	2
1.840999999999999970e+00	2
1.438499999999999890e+00	9
1.006999999999999895e+00	4
9.735000000000000320e-01	4
1.500999999999999890e+00	3
1.341499999999999915e+00	3
1.510499999999999954e+00	8
8.389999999999999680e-01	4
1.901000000000000023e+00	2
4.779999999999999805e-01	1
7.699999999999999900e-02	1
1.879000000000000004e+00	2
7.950000000000000122e-02	1
1.443500000000000005e+00	3
2.100000000000000089e+00	8
1.562000000000000055e+00	5
1.395499999999999963e+00	3
1.469999999999999973e+00	5
-3.395000000000000240e-01	5
-1.310000000000000053e-01	6
1.030000000000000027e+00	7
1.040000000000000036e+00	6
1.516499999999999959e+00	9
1.038000000000000034e+00	3
1.052999999999999936e+00	3
1.125499999999999945e+00	3
1.883000000000000007e+00	5
9.254999999999999893e-01	4
8.770000000000000018e-01	9
6.149999999999999911e-02	5
1.469999999999999973e+00	2
-3.935000000000000164e-01	1
2.225000000000000033e-01	6
5.560000000000000497e-01	7
1.332000000000000073e+00	3
2.164999999999999980e-01	6
-1.250000000000000000e-01	1
1.490499999999999936e+00	9
1.245999999999999996e+00	3
8.550000000000000655e-02	1
1.862500000000000044e+00	2
1.491000000000000103e+00	3
4.739999999999999769e-01	7
8.599999999999999312e-02	1
2.106500000000000039e+00	5
-8.219999999999999529e-01	5
5.759999999999999565e-01	7
-7.065000000000000169e-01	5
6.730000000000000426e-01	4
1.084999999999999992e-01	6
1.485000000000000098e+00	9
1.665000000000000091e-01	1
1.624500000000000055e+00	9
2.120499999999999829e+00	8
1.223000000000000087e+00	3
1.032999999999999918e+00	7
2.032999999999999918e+00	8
-8.575000000000000400e-01	5
5.875000000000000222e-01	7
2.109999999999999876e+00	8
7.465000000000000524e-01	4
2.059000000000000163e+00	8
5.480000000000000426e-01	7
8.120000000000000551e-01	4
1.776999999999999913e+00	8
1.434500000000000108e+00	9
1.498499999999999943e+00	9
1.952499999999999902e+00	2
1.313499999999999890e+00	3
1.359499999999999931e+00	9
1.985000000000000098e-01	6
-2.900000000000000147e-02	6
1.486499999999999932e+00	3
7.245000000000000329e-01	7
1.566999999999999948e+00	5
-8.899999999999999578e-02	5
2.331500000000000128e+00	8
1.514999999999999902e+00	2
1.491999999999999993e+00	9
1.616999999999999993e+00	8
7.854999999999999760e-01	5
1.786000000000000032e+00	2
7.620000000000000107e-01	7
8.850000000000000089e-01	4
8.944999999999999618e-01	1
1.434500000000000108e+00	9
1.417999999999999927e+00	9
2.470000000000000195e+00	8
1.806000000000000050e+00	2
2.140000000000000124e+00	5
1.399499999999999966e+00	2
5.424999999999999822e-01	7
1.502999999999999892e+00	5
9.825000000000000400e-01	4
-2.699999999999999969e-02	6
1.794499999999999984e+00	2
8.219999999999999529e-01	5
3.549999999999999822e-01	1
1.812500000000000000e+00	8
2.306000000000000050e+00	5
1.723500000000000032e+00	2
-3.749999999999999861e-02	6
1.820500000000000007e+00	7
9.240000000000000435e-01	4
6.654999999999999805e-01	7
1.779999999999999916e-01	6
1.425000000000000044e+00	3
1.494999999999999940e-01	1
-6.000000000000000125e-03	5
2.900000000000000147e-02	1
1.022499999999999964e+00	3
2.850000000000000103e-02	6
1.187000000000000055e+00	3
1.820999999999999952e+00	2
2.319500000000000117e+00	8
8.824999999999999512e-01	7
7.614999999999999547e-01	4
1.673999999999999932e+00	2
1.972499999999999920e+00	8
1.050999999999999934e+00	7
1.100000000000000006e-01	1
2.221000000000000085e+00	8
1.352999999999999980e+00	3
2.094999999999999918e-01	6
2.340000000000000135e-01	6
1.949999999999999956e+00	2
1.920500000000000096e+00	8
1.005000000000000060e-01	1
1.915000000000000036e-01	5
2.124999999999999944e-01	6
2.025999999999999801e+00	8
-5.149999999999999717e-02	6
2.325000000000000122e-01	6
6.300000000000000044e-02	1
-4.250000000000000305e-02	5
1.885000000000000009e+00	2
1.494999999999999940e-01	1
1.433000000000000052e+00	9
-1.789999999999999925e-01	1
1.710499999999999909e+00	5
1.479500000000000037e+00	9
-6.959999999999999520e-01	5
1.880500000000000060e+00	2
1.373499999999999943e+00	3
5.625000000000000000e-01	7
-4.834999999999999853e-01	5
6.690000000000000391e-01	7
1.860999999999999988e+00	5
1.370000000000000107e+00	9
1.965000000000000080e-01	6
2.675000000000000155e-01	6
2.221499999999999808e+00	8
1.391999999999999904e+00	9
1.365000000000000102e-01	6
1.799999999999999933e-01	6
-9.900000000000000466e-02	5
2.260000000000000064e-01	6
1.024999999999999911e+00	7
1.472499999999999920e+00	3
6.065000000000000391e-01	7
2.019000000000000128e+00	8
1.637000000000000011e+00	8
2.299500000000000099e+00	8
1.368999999999999995e+00	9
1.625000000000000056e-01	6
2.850000000000000103e-02	6
1.524999999999999967e-01	1
2.150500000000000078e+00	5
1.127499999999999947e+00	4
1.778999999999999915e+00	2
8.844999999999999529e-01	4
6.045000000000000373e-01	7
8.689999999999999947e-01	4
1.502000000000000002e+00	2
1.409499999999999975e+00	3
2.415000000000000036e+00	8
1.549999999999999989e-01	1
2.119999999999999940e-01	6
1.605000000000000038e-01	6
2.391999999999999904e+00	8
-9.900000000000000466e-02	5
1.886500000000000066e+00	2
1.830000000000000071e+00	2
5.430000000000000382e-01	7
1.145999999999999908e+00	2
1.181999999999999940e+00	3
1.479999999999999982e+00	9
1.464499999999999913e+00	9
6.235000000000000542e-01	7
9.915000000000000480e-01	5
1.499500000000000055e+00	5
6.464999999999999636e-01	1
7.449999999999999956e-01	4
1.848999999999999977e+00	2
1.493000000000000105e+00	9
1.749999999999999889e-01	6
8.425000000000000266e-01	4
2.331500000000000128e+00	8
5.370000000000000329e-01	7
-7.075000000000000178e-01	5
1.863499999999999934e+00	2
9.254999999999999893e-01	4
1.306999999999999940e+00	3
1.009500000000000064e+00	5
1.328000000000000069e+00	3
1.483000000000000096e+00	9
8.834999999999999520e-01	6
9.180000000000000382e-01	4
1.538000000000000034e+00	9
1.235500000000000043e+00	3
1.824000000000000066e+00	2
2.295000000000000095e-01	6
1.343499999999999917e+00	3
2.313499999999999890e+00	5
8.000000000000000167e-02	1
6.444999999999999618e-01	7
1.060999999999999943e+00	3
2.780000000000000249e-01	6
1.285000000000000031e-01	1
2.295000000000000095e-01	6
1.459999999999999909e-01	1
1.475999999999999979e+00	9
2.114999999999999936e-01	6
1.655000000000000082e-01	1
-6.480000000000000204e-01	5
1.635000000000000009e+00	8
8.884999999999999565e-01	4
-1.189999999999999947e+00	5
2.219500000000000028e+00	8
1.370999999999999996e+00	3
1.895499999999999963e+00	2
1.909000000000000030e+00	2
1.179499999999999993e+00	3
2.371500000000000163e+00	8
8.200000000000000344e-02	6
-3.145000000000000018e-01	5
1.495500000000000052e+00	9
1.338999999999999968e+00	3
9.300000000000000488e-01	9
6.750000000000000444e-01	7
9.340000000000000524e-01	4
9.839999999999999858e-01	5
7.920000000000000373e-01	5
8.469999999999999751e-01	5
1.806999999999999940e+00	2
1.972499999999999920e+00	8
1.593499999999999917e+00	9
1.338500000000000023e+00	9
1.304999999999999938e+00	3
2.210000000000000020e-01	1
2.374000000000000110e+00	8
1.267500000000000071e+00	3
9.855000000000000426e-01	3
1.195500000000000007e+00	3
1.375999999999999890e+00	3
2.197999999999999954e+00	8
2.176000000000000156e+00	8
6.594999999999999751e-01	7
1.765500000000000069e+00	2
7.149999999999999689e-01	7
1.029999999999999943e-01	1
6.260000000000000009e-01	7
2.048999999999999932e+00	8
1.528000000000000025e+00	9
1.400500000000000078e+00	9
4.800000000000000100e-02	1
1.655000000000000082e-01	1
1.331499999999999906e+00	9
1.129999999999999893e+00	7
1.945000000000000062e-01	6
1.439000000000000057e+00	5
-2.949999999999999845e-02	6
1.730499999999999927e+00	3
5.140000000000000124e-01	7
2.169000000000000039e+00	8
1.782000000000000028e+00	2
1.019500000000000073e+00	3
1.133499999999999952e+00	9
2.139999999999999958e-01	6
1.401999999999999913e+00	9
-8.579999999999999849e-01	5
1.093499999999999917e+00	4
7.850000000000000033e-02	1
9.120000000000000329e-01	4
1.387499999999999956e+00	3
5.604999999999999982e-01	7
1.451000000000000068e+00	9
5.929999999999999716e-01	7
5.280000000000000249e-01	7
1.610000000000000042e-01	1
1.439500000000000002e+00	2
1.244499999999999940e+00	3
1.467000000000000082e+00	9
8.200000000000000344e-02	1
1.286000000000000032e+00	5
1.631000000000000005e+00	5
1.189999999999999947e+00	6
-3.034999999999999920e-01	1
2.361499999999999932e+00	8
1.817499999999999893e+00	8
2.184499999999999886e+00	8
1.774999999999999911e-01	6
5.564999999999999947e-01	7
2.580000000000000071e-01	6
2.164499999999999869e+00	8
2.198999999999999844e+00	8
1.140000000000000041e-01	1
1.915499999999999980e+00	2
1.880000000000000004e-01	1
2.164999999999999980e-01	6
1.019999999999999934e-01	1
5.284999999999999698e-01	7
5.494999999999999885e-01	7
1.834999999999999964e-01	6
3.664999999999999925e-01	5
2.387500000000000178e+00	8
7.099999999999999367e-02	1
2.565000000000000058e-01	6
2.109999999999999931e-01	6
-1.204499999999999904e+00	5
5.240000000000000213e-01	7
7.544999999999999485e-01	5
5.394999999999999796e-01	7
1.899999999999999911e+00	2
1.095000000000000001e-01	1
1.835499999999999909e+00	2
-7.904999999999999805e-01	5
2.350000000000000006e-02	6
8.585000000000000409e-01	7
1.749999999999999889e-01	6
1.325499999999999901e+00	3
2.034999999999999865e-01	1
9.565000000000000169e-01	5
1.358500000000000041e+00	3
1.287500000000000089e+00	3
1.229999999999999982e-01	6
2.900000000000000147e-02	1
7.649999999999999856e-02	1
1.681499999999999995e+00	8
-4.169999999999999818e-01	5
2.360500000000000043e+00	8
1.184500000000000108e+00	3
1.850999999999999979e+00	2
2.120499999999999829e+00	8
2.699999999999999969e-02	1
9.579999999999999627e-01	4
-7.649999999999999856e-02	5
9.985000000000000542e-01	1
1.366000000000000103e+00	3
7.049999999999999323e-02	1
-3.309000000000000163e+00	4
1.910500000000000087e+00	5
6.049999999999999822e-01	7
1.493500000000000050e+00	9
1.909000000000000030e+00	2
9.154999999999999805e-01	4
1.482499999999999929e+00	9
7.049999999999999323e-02	6
1.487999999999999989e+00	9
2.310000000000000109e-01	6
1.554999999999999993e-01	1
8.235000000000000098e-01	4
1.715500000000000025e+00	2
9.445000000000000062e-01	4
6.800000000000000488e-02	1
1.054999999999999938e+00	4
-1.004499999999999948e+00	5
1.349499999999999922e+00	9
4.859999999999999876e-01	7
1.443500000000000005e+00	3
6.590000000000000302e-01	7
1.086500000000000021e+00	1
2.244000000000000217e+00	8
1.358999999999999986e+00	9
1.450499999999999901e+00	3
1.905499999999999972e+00	2
7.359999999999999876e-01	7
5.399999999999999939e-02	1
-8.984999999999999654e-01	5
1.893499999999999961e+00	2
1.824999999999999956e-01	6
5.030000000000000027e-01	7
2.275000000000000078e-01	6
6.155000000000000471e-01	7
2.383000000000000007e+00	8
5.484999999999999876e-01	7
-5.534999999999999920e-01	5
1.362500000000000044e+00	3
1.587499999999999911e+00	2
7.850000000000000033e-02	1
2.464500000000000135e+00	8
1.177000000000000046e+00	5
1.536000000000000032e+00	9
-1.099999999999999936e-02	6
1.050499999999999989e+00	5
1.146500000000000075e+00	4
5.949999999999999734e-01	7
1.304000000000000048e+00	5
-1.056000000000000050e+00	5
2.155499999999999972e+00	5
1.173999999999999932e+00	4
1.749999999999999889e-01	6
5.915000000000000258e-01	7
2.133000000000000007e+00	8
9.935000000000000497e-01	4
9.354999999999999982e-01	3
2.400000000000000050e-02	1
1.799500000000000099e+00	2
1.493500000000000050e+00	9
2.318999999999999950e+00	8
7.640000000000000124e-01	4
2.237000000000000099e+00	5
1.451999999999999957e+00	5
1.346999999999999975e+00	9
9.650000000000000244e-02	1
1.336999999999999966e+00	3
2.387500000000000178e+00	8
1.046499999999999986e+00	4
-2.825499999999999901e+00	4
1.889499999999999957e+00	2
1.804999999999999938e-01	1
5.354999999999999760e-01	7
2.047499999999999876e+00	8
1.600000000000000033e-02	6
2.435999999999999943e+00	8
1.459999999999999909e-01	6
2.220000000000000029e-01	6
1.219999999999999973e-01	1
1.373499999999999943e+00	9
2.255000000000000060e-01	1
1.539999999999999980e-01	1
2.469999999999999973e-01	6
9.829999999999999849e-01	4
9.685000000000000275e-01	4
2.101500000000000146e+00	7
-8.990000000000000213e-01	5
1.772000000000000020e+00	8
6.750000000000000444e-02	6
1.239999999999999991e+00	5
1.946499999999999897e+00	8
2.179499999999999993e+00	8
1.532499999999999973e+00	5
1.282000000000000028e+00	3
1.362500000000000044e+00	3
1.419999999999999873e-01	6
5.420000000000000373e-01	7
1.395000000000000129e-01	1
1.391499999999999959e+00	3
2.164499999999999869e+00	8
1.528499999999999970e+00	9
2.354499999999999815e+00	8
1.069999999999999979e-01	6
1.550999999999999934e+00	5
1.449999999999999956e+00	3
8.279999999999999583e-01	4
9.985000000000000542e-01	4
7.415000000000000480e-01	7
2.275000000000000078e-01	1
5.340000000000000302e-01	7
1.469999999999999918e-01	6
2.426000000000000156e+00	8
7.914999999999999813e-01	4
2.253499999999999837e+00	8
1.534000000000000030e+00	9
8.415000000000000258e-01	4
9.825000000000000400e-01	4
9.799999999999999822e-01	7
2.355500000000000149e+00	8
8.780000000000000027e-01	7
-9.320000000000000506e-01	5
7.950000000000000122e-02	6
1.100000000000000006e-01	1
1.408500000000000085e+00	9
8.285000000000000142e-01	4
6.925000000000000044e-01	7
1.953999999999999959e+00	2
5.224999999999999645e-01	7
1.670000000000000095e-01	1
1.880000000000000004e-01	6
1.932500000000000107e+00	2
1.788999999999999924e+00	2
1.419999999999999929e+00	9
8.349999999999999645e-01	4
2.384999999999999898e-01	1
-1.286999999999999922e+00	5
1.823499999999999899e+00	2
1.784999999999999920e-01	1
-2.434499999999999886e+00	4
1.947000000000000064e+00	2
2.195000000000000007e-01	6
7.045000000000000151e-01	7
1.241500000000000048e+00	5
-7.724999999999999645e-01	5
1.371499999999999941e+00	3
2.164999999999999980e-01	6
1.424999999999999878e-01	1
1.059500000000000108e+00	3
1.100000000000000006e-01	6
1.943000000000000060e+00	8
1.499500000000000055e+00	3
1.248499999999999943e+00	5
1.223500000000000032e+00	7
1.480499999999999927e+00	3
-8.970000000000000195e-01	5
1.372999999999999998e+00	9
5.584999999999999964e-01	7
6.290000000000000036e-01	7
-4.884999999999999898e-01	5
2.076000000000000068e+00	8
1.491500000000000048e+00	9
6.025000000000000355e-01	7
1.338999999999999968e+00	3
1.469999999999999918e-01	6
-2.000000000000000111e-01	1
1.368000000000000105e+00	9
1.804000000000000048e+00	2
1.368500000000000050e+00	3
1.350999999999999979e+00	9
7.710000000000000187e-01	2
1.779500000000000082e+00	2
1.165000000000000063e-01	1
1.884500000000000064e+00	2
1.368000000000000105e+00	3
2.241499999999999826e+00	8
1.469000000000000083e+00	5
1.819499999999999895e+00	2
1.328000000000000069e+00	9
2.064999999999999891e-01	1
1.309500000000000108e+00	9
-1.844999999999999973e-01	1
1.225999999999999979e+00	3
4.575000000000000178e-01	7
1.005000000000000060e-01	1
-6.830000000000000515e-01	5
2.300000000000000100e-01	6
9.679999999999999716e-01	7
8.639999999999999902e-01	4
1.305000000000000049e-01	6
1.249500000000000055e+00	3
8.189999999999999503e-01	4
3.899999999999999994e-02	1
8.599999999999999867e-01	4
2.575000000000000067e-01	6
1.310000000000000053e+00	3
5.380000000000000338e-01	7
2.345000000000000195e+00	8
1.796999999999999931e+00	2
1.382500000000000062e+00	3
9.204999999999999849e-01	4
-2.645000000000000129e-01	6
2.755000000000000226e-01	6
8.500000000000000611e-02	6
1.344999999999999973e+00	9
9.385000000000000009e-01	3
1.211500000000000021e+00	4
2.123000000000000220e+00	5
7.950000000000000122e-02	1
-3.350000000000000200e-02	6
1.906500000000000083e+00	2
1.524000000000000021e+00	9
1.079499999999999904e+00	7
2.124999999999999944e-01	6
1.667999999999999927e+00	2
1.908500000000000085e+00	2
1.511500000000000066e+00	9
2.467000000000000082e+00	8
1.457500000000000018e+00	9
1.389499999999999957e+00	2
2.750000000000000014e-02	6
2.079999999999999905e-01	6
1.270499999999999963e+00	3
1.231999999999999984e+00	5
1.552999999999999936e+00	5
1.191500000000000004e+00	5
2.800000000000000058e-02	1
-7.289999999999999813e-01	5
1.866500000000000048e+00	2
1.146500000000000075e+00	4
2.415500000000000203e+00	8
1.786000000000000032e+00	2
8.565000000000000391e-01	4
2.259999999999999787e+00	5
1.375999999999999890e+00	9
5.394999999999999796e-01	7
1.365499999999999936e+00	3
-1.499999999999999944e-01	5
1.701000000000000068e+00	5
1.324500000000000011e+00	3
1.915000000000000036e-01	6
1.460499999999999909e+00	5
2.374000000000000110e+00	8
8.064999999999999947e-01	7
2.444500000000000117e+00	8
1.526999999999999913e+00	5
1.489999999999999991e+00	9
6.215000000000000524e-01	7
1.838000000000000078e+00	2
8.679999999999999938e-01	7
1.770999999999999908e+00	2
5.849999999999999645e-01	6
1.550499999999999989e+00	5
1.816500000000000004e+00	2
1.903999999999999915e+00	8
1.306499999999999995e+00	3
1.715000000000000135e-01	1
7.219999999999999751e-01	7
-3.524999999999999800e-01	5
1.955000000000000071e-01	6
1.155999999999999917e+00	3
2.104999999999999927e-01	6
1.219500000000000028e+00	3
-2.000000000000000042e-03	1
1.072999999999999954e+00	4
7.714999999999999636e-01	4
5.474999999999999867e-01	7
9.435000000000000053e-01	9
2.243500000000000050e+00	7
1.411000000000000032e+00	9
2.451499999999999790e+00	8
5.955000000000000293e-01	7
1.834999999999999964e+00	2
1.532499999999999973e+00	5
1.431000000000000050e+00	9
2.037500000000000089e+00	8
-6.969999999999999529e-01	1
1.844500000000000028e+00	2
5.580000000000000515e-01	7
1.186500000000000110e+00	4
8.790000000000000036e-01	4
8.199999999999999512e-01	4
1.872999999999999998e+00	2
2.467000000000000082e+00	8
2.204499999999999904e+00	8
7.269999999999999796e-01	1
2.444999999999999951e-01	6
1.177999999999999936e+00	5
6.350000000000000089e-01	7
1.150000000000000050e-01	1
1.553500000000000103e+00	9
1.133000000000000007e+00	4
1.184999999999999942e-01	6
1.074999999999999983e-01	5
1.423999999999999932e+00	9
1.504999999999999893e+00	9
8.635000000000000453e-01	4
1.352500000000000036e+00	9
2.244000000000000217e+00	8
1.433999999999999941e+00	9
1.233999999999999986e+00	3
9.655000000000000249e-01	4
-2.550000000000000044e-01	1
1.538000000000000034e+00	9
1.786499999999999977e+00	8
5.530000000000000471e-01	7
1.250000000000000000e+00	3
1.115499999999999936e+00	4
1.941500000000000004e+00	8
6.420000000000000151e-01	7
2.351500000000000146e+00	8
1.713000000000000078e+00	9
1.441999999999999948e+00	3
1.788000000000000034e+00	4
1.834999999999999964e-01	6
4.299999999999999656e-02	1
1.034999999999999948e-01	1
1.719999999999999862e-01	6
2.474000000000000199e+00	8
5.160000000000000142e-01	7
2.093500000000000139e+00	5
1.479500000000000037e+00	9
1.371499999999999941e+00	3
1.336500000000000021e+00	3
2.200499999999999901e+00	8
8.999999999999999320e-03	6
1.575000000000000011e-01	1
1.455500000000000016e+00	5
8.375000000000000222e-01	4
2.383999999999999897e+00	8
1.565000000000000002e-01	1
1.768000000000000016e+00	2
1.925499999999999989e+00	5
1.399999999999999911e+00	9
1.856500000000000039e+00	2
1.881000000000000005e+00	2
-3.000000000000000062e-03	6
1.570000000000000062e+00	2
5.729999999999999538e-01	5
1.034999999999999920e+00	7
2.049999999999999878e-01	6
1.885000000000000009e-01	6
1.844999999999999973e-01	6
1.316500000000000004e+00	3
2.345499999999999918e+00	8
1.165499999999999980e+00	3
1.362000000000000099e+00	3
1.560999999999999943e+00	9
1.320999999999999952e+00	3
1.199999999999999956e+00	3
2.224000000000000199e+00	8
1.429499999999999993e+00	5
2.101500000000000146e+00	8
1.335499999999999909e+00	9
1.495000000000000107e+00	9
3.574999999999999845e-01	5
1.371499999999999941e+00	3
7.355000000000000426e-01	4
1.404500000000000082e+00	9
2.306000000000000050e+00	8
2.409999999999999920e-01	6
1.764999999999999902e-01	1
1.451500000000000012e+00	9
2.163499999999999979e+00	5
-6.370000000000000107e-01	5
5.344999999999999751e-01	7
2.174999999999999989e-01	6
1.917000000000000037e+00	2
1.969000000000000083e+00	8
2.114999999999999936e-01	6
1.869999999999999996e-01	6
1.357499999999999929e+00	9
1.290999999999999925e+00	8
1.643499999999999961e+00	5
1.217999999999999972e+00	4
8.139999999999999458e-01	4
5.480000000000000426e-01	6
8.750000000000000000e-01	4
5.274999999999999689e-01	7
1.990000000000000102e-01	6
1.895000000000000018e-01	6
2.575000000000000067e-01	6
-8.489999999999999769e-01	5
1.361499999999999932e+00	9
1.887499999999999956e+00	2
1.792000000000000037e+00	2
-5.915000000000000258e-01	5
2.168000000000000149e+00	8
1.538000000000000034e+00	2
1.635000000000000064e-01	1
-9.475000000000000089e-01	5
2.305000000000000104e-01	6
1.360999999999999988e+00	3
-1.549999999999999989e-01	1
1.005000000000000060e-01	1
1.328999999999999959e+00	3
2.089999999999999913e-01	6
1.793500000000000094e+00	8
2.352500000000000036e+00	8
7.860000000000000320e-01	4
2.470000000000000195e+00	8
1.614000000000000101e+00	2
1.125000000000000028e-01	1
1.915499999999999980e+00	2
6.604999999999999760e-01	7
1.340000000000000080e+00	3
1.887499999999999956e+00	2
2.468999999999999861e+00	8
2.325000000000000122e-01	1
1.187500000000000000e+00	3
-9.389999999999999458e-01	5
2.389499999999999957e+00	8
1.481000000000000094e+00	9
1.913499999999999979e+00	2
1.848000000000000087e+00	2
-1.181999999999999940e+00	5
1.508000000000000007e+00	9
5.120000000000000107e-01	7
1.061500000000000110e+00	3
6.229999999999999982e-01	7
1.330000000000000071e-01	1
1.481000000000000094e+00	5
1.461999999999999966e+00	3
-2.210000000000000020e-01	4
2.407500000000000195e+00	8
2.409999999999999920e-01	6
1.338999999999999968e+00	5
1.092000000000000082e+00	3
1.364999999999999991e+00	9
1.403000000000000025e+00	9
2.177999999999999936e+00	8
1.305500000000000105e+00	3
2.200000000000000178e+00	8
2.590000000000000080e-01	6
9.909999999999999920e-01	4
1.057500000000000107e+00	4
1.256999999999999895e+00	3
1.108500000000000041e+00	4
1.650000000000000078e-02	1
-9.030000000000000249e-01	5
1.256999999999999895e+00	3
5.344999999999999751e-01	7
1.715500000000000025e+00	2
9.699999999999999734e-01	7
1.401499999999999968e+00	9
1.187500000000000000e+00	4
2.375500000000000167e+00	8
6.875000000000000000e-01	7
1.286000000000000032e+00	3
1.188499999999999890e+00	4
-2.710000000000000187e-01	1
2.144999999999999962e-01	6
1.400000000000000133e-01	6
1.869999999999999996e-01	6
2.213499999999999801e+00	8
6.400000000000000133e-02	5
1.940000000000000058e-01	6
2.649999999999999925e-02	1
1.239999999999999991e-01	1
1.485500000000000043e+00	3
2.195000000000000007e-01	6
2.379999999999999893e+00	8
1.197999999999999954e+00	3
6.750000000000000444e-02	6
1.833499999999999908e+00	2
1.526000000000000023e+00	3
1.049999999999999961e-01	1
2.359500000000000153e+00	8
2.313000000000000167e+00	5
1.282499999999999973e+00	3
1.965500000000000025e+00	8
9.649999999999999689e-01	7
2.226999999999999869e+00	8
8.054999999999999938e-01	4
7.649999999999999856e-02	1
1.290000000000000036e+00	3
9.360000000000000542e-01	4
1.325000000000000067e-01	1
1.044999999999999957e-01	6
1.394500000000000073e+00	3
7.469999999999999973e-01	7
1.453500000000000014e+00	3
1.650000000000000078e-01	6
1.034499999999999975e+00	4
1.514000000000000012e+00	9
7.644999999999999574e-01	4
9.120000000000000329e-01	7
-3.875000000000000111e-01	1
1.822500000000000009e+00	2
1.866000000000000103e+00	5
1.816000000000000059e+00	2
1.973500000000000032e+00	8
-3.155000000000000027e-01	1
1.285000000000000031e-01	1
-7.950000000000000400e-01	6
1.354000000000000092e+00	3
1.435999999999999943e+00	9
1.444999999999999896e-01	1
2.200000000000000011e-01	6
1.261500000000000066e+00	3
1.250000000000000000e-01	6
6.005000000000000338e-01	7
8.655000000000000471e-01	4
1.479999999999999982e+00	3
7.990000000000000435e-01	4
1.193500000000000005e+00	3
1.491000000000000103e+00	9
2.355500000000000149e+00	8
1.049999999999999961e-01	1
8.699999999999999400e-02	1
1.268000000000000016e+00	6
1.853499999999999925e+00	8
8.179999999999999494e-01	4
8.719999999999999973e-01	4
1.585499999999999909e+00	2
9.479999999999999538e-01	4
4.495000000000000107e-01	7
5.120000000000000107e-01	7
2.146999999999999797e+00	5
1.459999999999999909e-01	1
6.149999999999999911e-02	6
2.094999999999999918e-01	6
1.118000000000000105e+00	4
4.605000000000000204e-01	7
1.485500000000000043e+00	9
1.102999999999999980e+00	7
1.601499999999999924e+00	8
1.847499999999999920e+00	5
1.458499999999999908e+00	5
1.358999999999999986e+00	2
-1.000000000000000021e-03	6
8.665000000000000480e-01	4
2.149999999999999911e+00	8
5.544999999999999929e-01	7
8.054999999999999938e-01	4
1.945000000000000062e+00	8
1.377499999999999947e+00	3
1.530000000000000027e+00	2
1.829499999999999904e+00	2
9.859999999999999876e-01	4
2.525000000000000022e-01	6
8.884999999999999565e-01	7
1.346000000000000085e+00	3
1.829999999999999960e-01	6
5.324999999999999734e-01	7
5.564999999999999947e-01	7
1.089499999999999913e+00	6
1.344000000000000083e+00	3
1.350000000000000089e+00	9
1.372999999999999998e+00	9
1.473500000000000032e+00	5
1.970499999999999918e+00	7
1.125499999999999945e+00	7
2.434000000000000163e+00	8
1.950000000000000067e-01	6
1.937500000000000000e+00	2
1.633000000000000007e+00	2
1.311500000000000110e+00	3
-9.290000000000000480e-01	5
2.330000000000000071e+00	8
5.410000000000000364e-01	7
6.854999999999999982e-01	7
1.590999999999999970e+00	9
1.352999999999999980e+00	9
1.250000000000000069e-02	1
-1.550000000000000044e+00	4
9.719999999999999751e-01	4
2.375999999999999890e+00	8
1.914500000000000091e+00	8
1.754999999999999893e-01	6
1.947999999999999954e+00	2
9.499999999999999556e-01	4
1.709500000000000020e+00	2
1.431000000000000050e+00	5
7.349999999999999867e-01	7
2.084999999999999909e-01	5
1.911000000000000032e+00	8
1.925000000000000044e+00	2
-2.850000000000000103e-02	6
1.290000000000000036e+00	5
1.874000000000000110e+00	8
1.734999999999999876e-01	6
2.649999999999999925e-02	1
1.414500000000000091e+00	9
1.407499999999999973e+00	9
1.235000000000000098e+00	3
5.865000000000000213e-01	7
1.590000000000000080e+00	2
1.793500000000000094e+00	2
1.230499999999999927e+00	3
2.120499999999999829e+00	8
1.575000000000000011e-01	6
7.599999999999999811e-02	1
2.470499999999999918e+00	8
1.417499999999999982e+00	3
1.556999999999999940e+00	2
1.179499999999999993e+00	5
2.350499999999999812e+00	8
7.449999999999999678e-02	1
1.300000000000000044e-01	1
8.475000000000000311e-01	3
1.487999999999999989e+00	9
1.318000000000000060e+00	3
1.180500000000000105e+00	3
2.245000000000000051e-01	6
9.775000000000000355e-01	4
1.870000000000000107e+00	2
1.514000000000000012e+00	9
1.504499999999999948e+00	5
1.407499999999999973e+00	3
2.081500000000000128e+00	8
1.839999999999999969e-01	6
1.819999999999999951e-01	6
1.275000000000000022e-01	6
9.800000000000000377e-02	1
1.457500000000000018e+00	5
-7.009999999999999565e-01	5
1.280000000000000027e-01	6
8.074999999999999956e-01	4
2.469500000000000028e+00	5
5.274999999999999689e-01	7
1.580500000000000016e+00	9
9.559999999999999609e-01	4
2.281000000000000139e+00	5
1.064999999999999974e-01	6
1.149999999999999911e+00	4
7.449999999999999678e-02	1
1.605499999999999927e+00	8
1.585000000000000020e-01	1
2.070500000000000007e+00	8
2.259500000000000064e+00	8
1.000000000000000056e-01	1
9.349999999999999978e-02	1
9.525000000000000133e-01	4
1.380500000000000060e+00	9
1.474499999999999922e+00	9
1.246499999999999941e+00	5
2.144999999999999962e-01	6
1.901499999999999968e+00	2
1.766999999999999904e+00	5
2.132000000000000117e+00	5
1.650000000000000078e-02	1
9.489999999999999547e-01	4
2.020000000000000129e-01	6
1.536499999999999977e+00	9
1.856999999999999984e+00	2
7.000000000000000146e-03	5
1.640000000000000069e-01	6
2.032500000000000195e+00	8
9.950000000000000511e-02	5
7.375000000000000444e-01	7
1.491999999999999993e+00	9
1.879499999999999948e+00	2
1.768999999999999906e+00	2
1.491500000000000048e+00	9
5.040000000000000036e-01	7
9.334999999999999964e-01	1
1.289500000000000091e+00	3
1.328999999999999959e+00	5
8.930000000000000160e-01	4
1.587499999999999911e+00	5
1.256999999999999895e+00	3
1.242499999999999938e+00	3
1.470499999999999918e+00	9
1.044999999999999957e-01	1
1.036000000000000032e+00	4
1.582000000000000073e+00	5
5.499999999999999681e-03	1
-9.320000000000000506e-01	5
1.863499999999999934e+00	2
2.084999999999999909e-01	6
6.800000000000000488e-02	1
-1.506499999999999950e+00	4
1.695000000000000118e-01	1
1.057500000000000107e+00	5
1.401000000000000023e+00	9
1.915999999999999925e+00	2
6.009999999999999787e-01	7
8.285000000000000142e-01	4
-7.604999999999999538e-01	5
2.202999999999999847e+00	8
8.629999999999999893e-01	4
1.578999999999999959e+00	9
6.530000000000000249e-01	7
1.260999999999999899e+00	3
1.605000000000000038e-01	5
4.799999999999999822e-01	7
1.414999999999999869e-01	6
1.619499999999999940e+00	9
1.372999999999999998e+00	3
9.675000000000000266e-01	5
1.219999999999999973e+00	3
7.599999999999999811e-02	6
-5.120000000000000107e-01	5
2.119999999999999940e-01	6
1.429000000000000048e+00	9
6.504999999999999671e-01	7
1.683000000000000052e+00	2
9.445000000000000062e-01	4
2.351500000000000146e+00	8
2.355500000000000149e+00	8
1.379999999999999893e+00	3
7.664999999999999591e-01	4
4.480000000000000093e-01	7
7.874999999999999778e-01	4
1.875000000000000000e-01	6
2.376500000000000057e+00	8
1.285000000000000031e-01	1
1.576999999999999957e+00	9
1.528999999999999915e+00	9
1.869999999999999996e-01	1
8.450000000000000566e-02	6
1.782999999999999918e+00	2
2.302999999999999936e+00	8
2.116499999999999826e+00	5
-3.599999999999999728e-02	6
5.855000000000000204e-01	7
1.777500000000000080e+00	2
2.077500000000000124e+00	8
8.774999999999999467e-01	7
1.177000000000000046e+00	4
1.427499999999999991e+00	9
3.300000000000000155e-02	1
-7.465000000000000524e-01	5
1.548000000000000043e+00	9
-2.745000000000000218e-01	1
7.800000000000000266e-01	7
2.929999999999999827e-01	5
8.439999999999999725e-01	4
9.855000000000000426e-01	4
6.145000000000000462e-01	7
9.080000000000000293e-01	7
1.229999999999999982e+00	3
1.241500000000000048e+00	3
1.417499999999999982e+00	9
1.848500000000000032e+00	2
1.455000000000000071e+00	9
5.204999999999999627e-01	7
1.603499999999999925e+00	5
1.595000000000000029e-01	1
1.345000000000000084e-01	1
1.872500000000000053e+00	8
1.520999999999999908e+00	3
9.000000000000000222e-01	4
6.350000000000000089e-01	5
-3.015499999999999847e+00	4
2.315000000000000113e-01	6
-3.074999999999999956e-01	4
1.455500000000000016e+00	2
9.925000000000000488e-01	4
1.844999999999999973e-01	6
5.735000000000000098e-01	7
1.919000000000000039e+00	8
9.900000000000000466e-02	1
6.554999999999999716e-01	7
2.290000000000000091e-01	6
1.247000000000000108e+00	3
1.650000000000000078e-02	6
-5.975000000000000311e-01	1
1.934500000000000108e+00	2
1.554000000000000048e+00	9
1.397999999999999909e+00	9
1.564999999999999947e+00	6
1.424500000000000099e+00	3
1.049500000000000099e+00	4
5.590000000000000524e-01	7
1.916500000000000092e+00	2
1.880500000000000060e+00	2
1.581499999999999906e+00	5
1.512499999999999956e+00	3
7.504999999999999449e-01	4
2.329499999999999904e+00	8
5.689999999999999503e-01	2
1.333499999999999908e+00	3
1.356500000000000039e+00	9
-9.234999999999999876e-01	5
1.059999999999999970e-01	1
1.903999999999999915e+00	2
6.185000000000000497e-01	7
1.215500000000000025e+00	4
8.599999999999999312e-02	1
1.479999999999999982e+00	9
2.540000000000000036e-01	6
9.900000000000000466e-02	1
1.461000000000000076e+00	3
1.054999999999999966e-01	1
2.081500000000000128e+00	5
6.915000000000000036e-01	5
8.649999999999999911e-01	4
7.185000000000000275e-01	7
8.760000000000000009e-01	7
1.881499999999999950e+00	2
8.375000000000000222e-01	4
1.130000000000000032e-01	5
8.954999999999999627e-01	4
2.449999999999999956e-01	6
5.414999999999999813e-01	7
7.830000000000000293e-01	4
2.246500000000000163e+00	8
1.446499999999999897e+00	9
1.433499999999999996e+00	5
5.184999999999999609e-01	4
4.814999999999999836e-01	7
1.232499999999999929e+00	3
1.899999999999999911e+00	2
-2.735000000000000209e-01	1
2.000000000000000042e-02	6
9.160000000000000364e-01	4
1.078500000000000014e+00	5
4.525000000000000133e-01	7
3.250000000000000111e-02	1
1.374000000000000110e+00	9
3.950000000000000039e-02	6
1.242499999999999938e+00	3
1.799999999999999864e-02	1
1.243500000000000050e+00	3
1.911499999999999977e+00	2
1.930000000000000049e-01	6
9.949999999999999956e-01	3
9.199999999999999845e-02	1
2.710000000000000187e-01	6
-2.599999999999999881e-02	6
1.337499999999999911e+00	3
9.054999999999999716e-01	4
2.233499999999999819e+00	5
1.448499999999999899e+00	9
1.897499999999999964e+00	2
1.897999999999999909e+00	2
2.310000000000000109e-01	6
1.245500000000000052e+00	3
1.935000000000000053e+00	8
1.834500000000000020e+00	2
2.222500000000000142e+00	8
1.381999999999999895e+00	3
2.354499999999999815e+00	8
1.338500000000000023e+00	3
8.800000000000000044e-01	4
2.228000000000000203e+00	8
1.352999999999999980e+00	3
2.028000000000000025e+00	8
1.435499999999999998e+00	9
9.210000000000000409e-01	4
1.600000000000000033e-01	1
2.229000000000000092e+00	8
2.649999999999999925e-02	1
2.373499999999999943e+00	8
3.250000000000000111e-02	1
2.949999999999999845e-02	1
1.116500000000000048e+00	5
5.399999999999999939e-02	6
1.770499999999999963e+00	2
1.879999999999999893e+00	2
1.359499999999999931e+00	2
2.454999999999999960e-01	6
1.883000000000000007e+00	2
2.307999999999999829e+00	8
1.495500000000000052e+00	3
2.199500000000000011e+00	8
1.398500000000000076e+00	9
1.422500000000000098e+00	3
1.416500000000000092e+00	9
1.457500000000000018e+00	5
-8.090000000000000524e-01	5
1.332500000000000018e+00	3
7.015000000000000124e-01	7
8.094999999999999973e-01	7
2.112000000000000099e+00	5
1.420500000000000096e+00	4
6.534999999999999698e-01	1
2.111000000000000210e+00	8
1.828999999999999959e+00	2
1.066999999999999948e+00	3
2.366499999999999826e+00	8
6.744999999999999885e-01	7
5.414999999999999813e-01	7
1.029500000000000082e+00	7
2.224000000000000199e+00	8
1.759500000000000064e+00	3
1.506499999999999950e+00	9
5.795000000000000151e-01	7
2.193999999999999950e+00	8
1.027500000000000080e+00	4
1.494999999999999940e-01	1
1.884500000000000064e+00	2
9.425000000000000044e-01	4
8.400000000000000522e-02	1
5.755000000000000115e-01	7
2.540000000000000036e-01	6
1.780999999999999917e+00	2
-8.725000000000000533e-01	5
1.280000000000000027e-01	6
1.072000000000000064e+00	4
2.419000000000000039e+00	8
1.873499999999999943e+00	2
2.147499999999999964e+00	4
2.369499999999999940e+00	8
1.243999999999999995e+00	3
2.238500000000000156e+00	8
2.300499999999999989e+00	8
1.324500000000000011e+00	3
2.580000000000000071e-01	6
8.449999999999999734e-01	4
7.179999999999999716e-01	7
1.000000000000000056e-01	1
2.351500000000000146e+00	8
1.908500000000000085e+00	2
1.541500000000000092e+00	9
2.367999999999999883e+00	8
1.985000000000000098e-01	6
1.364500000000000046e+00	9
2.169999999999999984e-01	6
1.903499999999999970e+00	2
1.882500000000000062e+00	2
1.425999999999999934e+00	9
1.879000000000000004e+00	2
5.564999999999999947e-01	7
1.493999999999999995e+00	9
2.445500000000000007e+00	8
2.295000000000000095e-01	6
1.752000000000000002e+00	2
1.845499999999999918e+00	2
1.909499999999999975e+00	2
7.389999999999999902e-01	4
9.014999999999999680e-01	4
3.305000000000000160e-01	1
1.909499999999999975e+00	2
2.298500000000000210e+00	4
8.949999999999999623e-02	6
-3.089999999999999969e-01	5
-5.264999999999999680e-01	5
1.522999999999999909e+00	9
-3.410000000000000253e-01	5
1.415499999999999980e+00	9
1.088999999999999968e+00	5
2.119999999999999940e-01	6
1.256000000000000005e+00	3
1.013500000000000068e+00	7
6.830000000000000515e-01	7
5.430000000000000382e-01	2
2.370999999999999996e+00	8
2.188000000000000167e+00	8
1.368000000000000105e+00	3
4.969999999999999973e-01	5
7.614999999999999547e-01	5
1.285500000000000087e+00	3
8.255000000000000115e-01	4
1.464999999999999913e-01	1
-3.004999999999999893e-01	5
1.127000000000000002e+00	4
1.450000000000000074e-02	1
1.092999999999999972e+00	4
1.001500000000000057e+00	4
1.935999999999999943e+00	8
2.386499999999999844e+00	8
1.393000000000000016e+00	9
4.250000000000000305e-02	1
1.135499999999999954e+00	4
1.335499999999999909e+00	9
1.463999999999999968e+00	9
1.816500000000000004e+00	2
-3.128000000000000114e+00	4
1.592999999999999972e+00	9
1.224499999999999922e+00	3
1.265000000000000013e-01	1
1.514000000000000012e+00	9
8.689999999999999947e-01	5
1.441500000000000004e+00	9
2.380500000000000060e+00	8
2.302000000000000046e+00	8
1.539500000000000091e+00	3
5.390000000000000346e-01	7
2.195000000000000007e-01	6
2.690000000000000169e-01	1
2.483999999999999986e+00	5
1.445000000000000062e+00	9
7.660000000000000142e-01	4
1.268999999999999906e+00	3
1.688499999999999890e+00	2
3.029999999999999916e-01	6
-5.494999999999999885e-01	5
1.190499999999999892e+00	3
7.900000000000000078e-02	1
1.854999999999999982e-01	6
6.350000000000000089e-01	7
1.452499999999999902e+00	9
1.782499999999999973e+00	2
6.039999999999999813e-01	7
2.462000000000000188e+00	8
4.555000000000000160e-01	5
1.836500000000000021e+00	2
2.188499999999999890e+00	8
1.881499999999999950e+00	2
1.547500000000000098e+00	9
8.605000000000000426e-01	4
7.900000000000000078e-02	1
1.449999999999999956e+00	9
1.639999999999999902e+00	2
1.774999999999999911e-01	1
8.625000000000000444e-01	4
1.913000000000000034e+00	2
1.895000000000000018e+00	5
1.314999999999999947e+00	3
2.051000000000000156e+00	5
2.163499999999999979e+00	8
2.149999999999999967e-01	6
9.174999999999999822e-01	4
7.445000000000000506e-01	4
1.524999999999999911e+00	9
1.022999999999999909e+00	2
5.404999999999999805e-01	7
2.321499999999999897e+00	8
1.403999999999999915e+00	3
9.635000000000000231e-01	3
1.436500000000000110e+00	9
1.379000000000000004e+00	9
7.299999999999999545e-02	1
7.510000000000000009e-01	7
2.236000000000000210e+00	8
1.233000000000000096e+00	3
2.072499999999999787e+00	8
1.305000000000000049e-01	1
1.624000000000000110e+00	5
1.810499999999999998e+00	2
5.434999999999999831e-01	7
1.260499999999999954e+00	3
-7.149999999999999689e-01	5
8.149999999999999467e-01	4
2.429999999999999938e-01	1
1.630000000000000060e-01	1
1.368500000000000050e+00	9
1.838000000000000078e+00	2
1.477000000000000091e+00	9
7.674999999999999600e-01	4
8.300000000000000433e-02	1
6.189999999999999947e-01	7
8.379999999999999671e-01	4
5.424999999999999822e-01	7
1.421000000000000041e+00	2
5.769999999999999574e-01	7
1.108500000000000041e+00	5
1.469000000000000083e+00	9
1.703500000000000014e+00	2
2.124999999999999944e-01	6
1.477500000000000036e+00	9
2.044500000000000206e+00	8
2.254999999999999893e+00	5
1.079999999999999988e-01	1
1.834000000000000075e+00	2
1.049999999999999961e-01	1
1.783500000000000085e+00	2
1.499500000000000055e+00	9
1.776999999999999913e+00	2
8.155000000000000027e-01	4
2.164999999999999980e-01	6
1.330000000000000071e-01	1
1.342999999999999972e+00	3
8.175000000000000044e-01	4
1.474499999999999922e+00	3
6.005000000000000338e-01	7
1.081499999999999906e+00	9
1.352000000000000091e+00	9
6.919999999999999485e-01	7
6.750000000000000444e-01	7
6.099999999999999867e-01	6
1.342000000000000082e+00	3
1.306499999999999995e+00	9
2.365000000000000213e+00	8
1.774999999999999911e+00	2
2.214500000000000135e+00	4
1.756000000000000005e+00	2
7.774999999999999689e-01	7
9.500000000000000111e-02	1
7.500000000000000000e-01	4
1.100000000000000089e+00	4
1.834999999999999964e-01	6
2.374999999999999889e-01	6
1.413999999999999924e+00	9
2.394999999999999907e-01	6
1.649999999999999911e+00	2
1.437500000000000000e+00	9
2.401499999999999968e+00	8
5.380000000000000338e-01	7
1.258000000000000007e+00	3
1.247999999999999998e+00	3
1.864999999999999991e-01	6
1.881499999999999950e+00	2
1.604000000000000092e+00	9
2.187500000000000000e+00	8
9.080000000000000293e-01	4
1.911000000000000032e+00	2
5.314999999999999725e-01	7
-8.830000000000000071e-01	5
1.500000000000000000e+00	9
9.585000000000000187e-01	4
6.520000000000000240e-01	7
1.189999999999999947e+00	3
-2.050000000000000086e-02	6
1.580000000000000016e-01	6
1.391499999999999959e+00	3
1.540999999999999925e+00	3
-5.274999999999999689e-01	1
1.449000000000000066e+00	4
1.342500000000000027e+00	9
5.240000000000000213e-01	7
2.205000000000000016e-01	6
1.945500000000000007e+00	2
1.790499999999999980e+00	2
8.350000000000000477e-02	1
2.034499999999999975e+00	8
1.885000000000000009e-01	6
1.892500000000000071e+00	2
-2.210000000000000020e-01	5
2.024000000000000021e+00	8
1.421499999999999986e+00	3
1.869499999999999940e+00	2
1.512499999999999956e+00	3
1.198499999999999899e+00	3
2.050000000000000086e-02	1
2.352500000000000036e+00	8
6.025000000000000355e-01	7
-3.144000000000000128e+00	4
5.709999999999999520e-01	7
3.950000000000000039e-02	6
5.340000000000000302e-01	7
2.236499999999999932e+00	8
1.881999999999999895e+00	2
2.244000000000000217e+00	8
2.354499999999999815e+00	8
1.887000000000000011e+00	2
9.469999999999999529e-01	7
1.790999999999999925e+00	2
1.900500000000000078e+00	2
2.949999999999999845e-01	5
1.955000000000000071e-01	6
1.039999999999999952e-01	1
8.745000000000000551e-01	4
9.779999999999999805e-01	4
-7.135000000000000231e-01	5
1.441500000000000004e+00	9
5.809999999999999609e-01	7
1.541500000000000092e+00	3
1.481999999999999984e+00	9
3.549999999999999684e-02	6
2.381499999999999950e+00	8
2.376999999999999780e+00	8
1.158500000000000085e+00	3
2.064999999999999891e-01	1
2.025000000000000133e-01	1
1.651000000000000023e+00	8
1.347499999999999920e+00	9
1.514999999999999902e+00	2
9.375000000000000000e-01	3
2.404500000000000082e+00	8
5.649999999999999467e-01	7
5.725000000000000089e-01	7
1.040000000000000036e+00	5
2.310500000000000220e+00	5
1.249000000000000110e+00	3
2.545000000000000040e-01	6
1.370000000000000107e+00	9
1.311500000000000110e+00	3
1.493999999999999995e+00	9
6.400000000000000133e-01	7
1.540999999999999925e+00	9
2.275500000000000078e+00	5
1.377499999999999947e+00	9
2.173500000000000210e+00	5
1.245999999999999996e+00	3
1.471500000000000030e+00	9
2.155499999999999972e+00	8
-2.419999999999999929e-01	1
5.899999999999999689e-01	7
-5.340000000000000302e-01	5
2.069999999999999896e-01	6
1.351499999999999924e+00	9
-7.429999999999999938e-01	5
7.690000000000000169e-01	7
1.610000000000000042e-01	1
1.122500000000000053e+00	4
5.959999999999999742e-01	7
6.899999999999999467e-01	7
5.504999999999999893e-01	7
1.176500000000000101e+00	3
1.029500000000000082e+00	4
1.375999999999999890e+00	2
5.574999999999999956e-01	7
9.675000000000000266e-01	4
1.854500000000000037e+00	2
2.260000000000000064e-01	5
1.754999999999999893e-01	1
1.945500000000000007e+00	5
2.100999999999999979e+00	5
1.869999999999999996e-01	6
2.200000000000000178e+00	8
1.822000000000000064e+00	2
7.950000000000000122e-02	1
1.167999999999999927e+00	3
1.065499999999999892e+00	5
1.507500000000000062e+00	3
1.846500000000000030e+00	5
1.264000000000000012e+00	2
2.287999999999999812e+00	8
9.589999999999999636e-01	4
1.675000000000000100e-01	6
1.519500000000000073e+00	3
2.049999999999999878e-01	6
2.201499999999999790e+00	8
1.358000000000000096e+00	9
9.190000000000000391e-01	4
1.354500000000000037e+00	9
2.259500000000000064e+00	8
5.200000000000000178e-01	7
1.045500000000000096e+00	4
1.131499999999999950e+00	4
2.116000000000000103e+00	8
9.409999999999999476e-01	4
1.241000000000000103e+00	3
1.815499999999999892e+00	2
1.499999999999999944e-01	5
1.491000000000000103e+00	9
5.909999999999999698e-01	7
1.860000000000000098e+00	2
-3.302999999999999936e+00	4
1.897000000000000020e+00	2
1.899999999999999911e+00	2
1.399499999999999966e+00	3
9.364999999999999991e-01	4
1.486499999999999932e+00	9
1.415999999999999925e+00	9
1.361499999999999932e+00	9
1.506499999999999950e+00	9
5.739999999999999547e-01	7
7.830000000000000293e-01	5
2.690000000000000169e-01	6
1.679000000000000048e+00	5
1.028499999999999970e+00	5
1.121499999999999941e+00	4
1.908500000000000085e+00	2
6.420000000000000151e-01	7
5.839999999999999636e-01	7
1.366500000000000048e+00	3
8.849999999999999534e-02	1
1.907999999999999918e+00	2
8.529999999999999805e-01	4
5.360000000000000320e-01	7
1.997500000000000053e+00	8
1.933499999999999996e+00	5
2.154999999999999971e-01	6
2.109999999999999931e-01	6
1.660000000000000087e-01	1
-8.559999999999999831e-01	5
9.925000000000000488e-01	3
1.341499999999999915e+00	3
2.069999999999999840e+00	8
8.355000000000000204e-01	4
1.234499999999999931e+00	3
5.540000000000000480e-01	7
2.399999999999999911e-01	1
1.187000000000000055e+00	4
1.417000000000000037e+00	9
5.669999999999999485e-01	7
2.392500000000000071e+00	8
1.913000000000000034e+00	2
1.437999999999999945e+00	9
1.927999999999999936e+00	2
1.122000000000000108e+00	4
1.527500000000000080e+00	3
8.259999999999999565e-01	4
2.770000000000000240e-01	6
-5.635000000000000009e-01	5
-9.199999999999999845e-02	6
2.386499999999999844e+00	8
2.226500000000000146e+00	8
6.544999999999999707e-01	7
1.401999999999999913e+00	9
1.479500000000000037e+00	3
1.884500000000000064e+00	2
6.089999999999999858e-01	7
6.199999999999999956e-02	1
2.225000000000000033e-01	6
1.833499999999999908e+00	2
1.445500000000000007e+00	3
1.970000000000000084e-01	6
2.142500000000000071e+00	5
1.355000000000000093e-01	1
7.850000000000000033e-02	5
1.308000000000000052e+00	3
1.427999999999999936e+00	9
1.358500000000000041e+00	3
1.570000000000000007e-01	1
1.942499999999999893e+00	2
2.224499999999999922e+00	8
1.217000000000000082e+00	3
2.375999999999999890e+00	8
1.754999999999999893e+00	2
2.319999999999999840e+00	8
1.895000000000000018e-01	6
1.575000000000000011e-01	1
1.056000000000000050e+00	4
1.605000000000000038e-01	1
1.363499999999999934e+00	9
5.534999999999999920e-01	7
2.370999999999999996e+00	8
1.784499999999999975e+00	2
2.089999999999999913e-01	6
1.668500000000000094e+00	2
1.472499999999999920e+00	9
1.873499999999999943e+00	2
-7.049999999999999323e-02	5
2.374000000000000110e+00	8
1.435499999999999998e+00	5
1.360000000000000098e-01	6
9.735000000000000320e-01	4
1.310000000000000053e+00	3
1.421499999999999986e+00	9
7.724999999999999645e-01	9
8.529999999999999805e-01	4
1.005000000000000060e-01	1
1.614500000000000046e+00	8
1.805500000000000105e+00	2
1.245000000000000107e+00	3
1.322000000000000064e+00	3
1.362000000000000099e+00	3
7.990000000000000435e-01	5
2.327500000000000124e+00	8
2.349000000000000199e+00	8
1.443500000000000005e+00	9
5.304999999999999716e-01	7
2.225000000000000033e-01	6
2.087000000000000188e+00	8
-1.034999999999999948e-01	5
-5.645000000000000018e-01	5
9.415000000000000036e-01	4
1.828000000000000069e+00	2
1.389999999999999902e+00	9
3.415000000000000258e-01	5
1.966499999999999915e+00	8
1.360999999999999988e+00	9
2.115499999999999936e+00	8
1.661499999999999977e+00	9
1.439000000000000057e+00	9
6.650000000000000355e-02	1
1.358999999999999986e+00	9
1.366000000000000103e+00	9
1.965500000000000025e+00	8
1.581499999999999906e+00	9
6.239999999999999991e-01	7
1.378500000000000059e+00	3
1.824999999999999956e-01	6
1.000000000000000056e-01	1
2.290000000000000091e-01	6
-3.353499999999999925e+00	4
2.247500000000000053e+00	8
8.949999999999999623e-02	1
8.110000000000000542e-01	4
1.389499999999999957e+00	9
9.344999999999999973e-01	4
2.200000000000000011e-01	6
2.245000000000000051e-01	6
6.049999999999999822e-01	7
1.469000000000000083e+00	5
6.875000000000000000e-01	7
5.394999999999999796e-01	7
1.481999999999999984e+00	9
1.459500000000000020e+00	9
1.239999999999999991e+00	3
1.798499999999999988e+00	2
1.399000000000000021e+00	3
5.490000000000000435e-01	7
2.335000000000000131e-01	6
1.622000000000000108e+00	2
9.499999999999999764e-03	1
2.285000000000000087e-01	6
9.755000000000000338e-01	4
1.840500000000000025e+00	2
8.565000000000000391e-01	4
1.537500000000000089e+00	9
1.349999999999999985e-02	6
1.308999999999999941e+00	3
1.055500000000000105e+00	7
1.814999999999999947e-01	6
1.395000000000000018e+00	3
1.414999999999999869e-01	1
5.975000000000000311e-01	7
7.764999999999999680e-01	4
5.530000000000000471e-01	7
4.974999999999999978e-01	7
2.102500000000000036e+00	5
1.457500000000000018e+00	9
1.375499999999999945e+00	3
2.330000000000000071e+00	8
-9.270000000000000462e-01	5
9.505000000000000115e-01	4
1.796499999999999986e+00	2
-3.392500000000000071e+00	4
1.877999999999999892e+00	2
1.355499999999999927e+00	9
2.329499999999999904e+00	5
1.504000000000000004e+00	3
1.414999999999999869e-01	6
8.984999999999999654e-01	4
1.260999999999999899e+00	3
1.951000000000000068e+00	2
2.211500000000000021e+00	8
-7.015000000000000124e-01	5
2.221499999999999808e+00	8
4.894999999999999907e-01	7
2.319500000000000117e+00	8
-5.524999999999999911e-01	5
1.413999999999999924e+00	5
1.204499999999999904e+00	3
2.317499999999999893e+00	8
2.445500000000000007e+00	8
1.407499999999999973e+00	9
1.453999999999999959e+00	9
1.930000000000000049e-01	6
7.099999999999999367e-02	6
2.063499999999999890e+00	8
1.860000000000000098e+00	8
5.905000000000000249e-01	7
6.270000000000000018e-01	7
1.903999999999999915e+00	2
4.800000000000000100e-02	1
1.315000000000000058e-01	1
1.424999999999999878e-01	1
9.625000000000000222e-01	4
1.034000000000000030e+00	3
1.779999999999999916e-01	1
2.114999999999999936e-01	6
1.479999999999999927e-01	6
-5.614999999999999991e-01	5
1.495000000000000107e+00	3
2.253499999999999837e+00	8
4.764999999999999791e-01	7
1.754999999999999893e-01	1
2.745000000000000218e-01	6
1.330500000000000016e+00	3
1.501500000000000057e+00	9
1.508999999999999897e+00	9
6.654999999999999805e-01	7
-5.739999999999999547e-01	5
1.494999999999999940e-01	1
1.378500000000000059e+00	9
1.250999999999999890e+00	3
1.827499999999999902e+00	2
4.575000000000000178e-01	7
1.310999999999999943e+00	6
1.809500000000000108e+00	2
1.884500000000000064e+00	2
1.034999999999999948e-01	1
5.334999999999999742e-01	7
1.925499999999999989e+00	2
1.889000000000000012e+00	5
5.374999999999999778e-01	7
1.016999999999999904e+00	3
1.044999999999999957e-01	1
2.114500000000000046e+00	8
1.019500000000000073e+00	4
8.569999999999999840e-01	4
2.216000000000000192e+00	8
1.903999999999999915e+00	2
1.995000000000000107e-01	6
1.829999999999999960e-01	6
8.289999999999999591e-01	4
-5.324999999999999734e-01	5
1.325499999999999901e+00	3
8.104999999999999982e-01	4
1.375999999999999890e+00	9
2.450499999999999901e+00	8
2.096000000000000085e+00	5
5.000000000000000278e-02	1
2.232000000000000206e+00	8
6.919999999999999485e-01	7
1.321499999999999897e+00	3
4.515000000000000124e-01	5
1.504000000000000004e+00	3
2.323500000000000121e+00	8
2.150500000000000078e+00	8
1.125000000000000028e-01	1
8.860000000000000098e-01	4
1.024499999999999966e+00	2
1.024000000000000021e+00	5
8.715000000000000524e-01	4
2.361000000000000210e+00	5
2.949999999999999845e-02	6
8.749999999999999445e-02	6
1.476499999999999924e+00	9
1.049999999999999961e-01	1
1.368000000000000105e+00	3
1.805500000000000105e+00	2
1.580500000000000016e+00	9
5.494999999999999885e-01	1
1.133499999999999952e+00	3
1.881999999999999895e+00	2
1.633499999999999952e+00	9
1.179499999999999993e+00	3
5.875000000000000222e-01	7
1.445999999999999952e+00	5
1.294499999999999984e+00	3
5.745000000000000107e-01	7
1.836000000000000076e+00	2
1.808999999999999941e+00	2
1.377999999999999892e+00	9
7.465000000000000524e-01	4
1.409499999999999975e+00	9
8.880000000000000115e-01	4
1.481500000000000039e+00	9
1.474499999999999922e+00	5
1.419999999999999929e+00	9
2.680000000000000160e-01	6
1.767500000000000071e+00	2
2.047499999999999876e+00	8
1.993500000000000050e+00	8
1.776999999999999913e+00	2
6.790000000000000480e-01	5
1.410500000000000087e+00	9
9.449999999999999512e-01	4
2.376999999999999780e+00	8
2.348500000000000032e+00	8
1.700000000000000122e-01	1
1.949999999999999956e+00	2
1.063499999999999890e+00	4
1.014499999999999957e+00	7
6.035000000000000364e-01	7
1.443500000000000005e+00	9
2.387500000000000178e+00	8
1.360000000000000098e-01	1
8.044999999999999929e-01	4
1.358999999999999986e+00	9
1.974499999999999922e+00	8
1.538499999999999979e+00	9
1.459999999999999909e-01	1
1.561500000000000110e+00	2
3.729999999999999982e-01	6
9.489999999999999547e-01	5
2.200000000000000011e-01	6
1.895999999999999908e+00	2
1.880000000000000004e-01	6
2.225000000000000033e-01	6
-6.770000000000000462e-01	5
2.169500000000000206e+00	8
1.066000000000000059e+00	5
-3.000000000000000062e-03	6
-8.300000000000000433e-02	1
1.654500000000000082e+00	5
6.015000000000000346e-01	7
1.308999999999999941e+00	3
9.825000000000000400e-01	9
1.819999999999999951e-01	1
2.449500000000000011e+00	8
1.366999999999999993e+00	9
1.216499999999999915e+00	3
1.782499999999999973e+00	2
1.534999999999999976e-01	1
8.944999999999999618e-01	4
9.499999999999999764e-03	6
8.125000000000000000e-01	4
1.030499999999999972e+00	4
1.439999999999999891e-01	1
1.275000000000000022e-01	6
1.949999999999999956e+00	2
1.806000000000000050e+00	2
2.030000000000000138e-01	6
8.699999999999999400e-02	1
1.600000000000000033e-02	1
1.441500000000000004e+00	9
-3.325000000000000178e-01	1
2.549999999999999836e-02	1
9.334999999999999964e-01	3
1.688499999999999890e+00	2
1.854999999999999982e-01	1
1.799500000000000099e+00	2
8.335000000000000187e-01	4
1.204999999999999960e-01	5
1.766000000000000014e+00	2
1.476499999999999924e+00	3
2.343500000000000139e+00	8
-6.464999999999999636e-01	1
1.885000000000000009e+00	2
2.404999999999999916e-01	6
6.614999999999999769e-01	7
1.477500000000000036e+00	9
2.174999999999999989e-01	6
3.145000000000000018e-01	6
1.475000000000000089e+00	9
1.905000000000000027e-01	6
-2.049999999999999878e-01	1
1.600000000000000033e-02	6
5.795000000000000151e-01	7
2.446499999999999897e+00	8
8.814999999999999503e-01	4
5.324999999999999734e-01	7
2.027499999999999858e+00	5
7.319999999999999840e-01	7
2.291999999999999815e+00	8
2.268499999999999961e+00	8
1.245999999999999996e+00	3
1.784000000000000030e+00	2
2.535000000000000031e-01	6
9.010000000000000231e-01	4
1.995000000000000107e-01	6
1.833499999999999908e+00	2
2.354999999999999982e+00	8
1.403499999999999970e+00	3
1.782499999999999973e+00	2
1.834999999999999964e+00	2
1.490499999999999936e+00	3
1.133000000000000007e+00	4
1.422500000000000098e+00	3
1.564000000000000057e+00	2
1.069999999999999979e-01	6
2.196000000000000174e+00	8
1.485000000000000098e+00	3
2.109999999999999931e-01	6
1.582500000000000018e+00	5
9.750000000000000333e-02	1
2.353499999999999925e+00	8
2.177999999999999936e+00	5
1.494499999999999940e+00	9
1.330000000000000071e+00	9
8.000000000000000167e-02	1
1.247000000000000108e+00	3
1.617499999999999938e+00	6
8.485000000000000320e-01	4
1.794999999999999929e-01	5
4.610000000000000209e-01	6
1.819999999999999951e-01	1
2.320000000000000118e-01	1
2.310000000000000109e-01	6
5.879999999999999671e-01	7
8.289999999999999591e-01	4
1.417499999999999982e+00	9
6.939999999999999503e-01	7
8.599999999999999312e-02	1
1.142500000000000071e+00	8
9.249999999999999889e-02	1
5.220000000000000195e-01	7
1.259500000000000064e+00	3
1.810999999999999943e+00	2
1.789999999999999925e-01	1
2.295000000000000095e-01	6
9.485000000000000098e-01	3
1.859499999999999931e+00	5
1.370999999999999996e+00	3
1.840999999999999970e+00	2
-6.360000000000000098e-01	5
7.510000000000000009e-01	5
9.575000000000000178e-01	4
1.565000000000000002e-01	1
2.419500000000000206e+00	8
-6.069999999999999840e-01	1
1.564500000000000002e+00	9
1.005500000000000060e+00	4
1.534000000000000030e+00	8
8.770000000000000018e-01	4
1.415000000000000036e+00	9
2.964999999999999858e-01	6
1.375999999999999890e+00	9
1.300000000000000044e+00	3
2.328500000000000014e+00	8
-6.834999999999999964e-01	5
3.160000000000000031e-01	6
6.520000000000000240e-01	7
1.925999999999999934e+00	8
2.424999999999999933e-01	6
1.841499999999999915e+00	2
2.129999999999999949e-01	6
1.842999999999999972e+00	2
1.221000000000000085e+00	3
2.117500000000000160e+00	8
1.058499999999999996e+00	4
1.647499999999999964e+00	9
1.669499999999999984e+00	9
1.449999999999999900e-01	1
8.999999999999999667e-02	1
8.359999999999999654e-01	5
1.381000000000000005e+00	3
2.037500000000000089e+00	8
1.915000000000000036e+00	2
1.903499999999999970e+00	2
3.024999999999999911e-01	6
1.315000000000000058e-01	1
1.828500000000000014e+00	8
1.370500000000000052e+00	3
2.220000000000000195e+00	8
1.709999999999999964e+00	2
6.049999999999999822e-01	7
1.056999999999999940e+00	5
1.026000000000000023e+00	4
6.055000000000000382e-01	7
1.371499999999999941e+00	9
1.318000000000000060e+00	3
-4.685000000000000275e-01	5
2.413499999999999979e+00	8
1.880000000000000004e-01	6
1.417999999999999927e+00	9
8.004999999999999893e-01	4
2.270000000000000073e-01	6
1.325000000000000067e-01	1
2.159999999999999976e-01	6
7.285000000000000364e-01	1
7.770000000000000240e-01	1
1.229999999999999982e-01	1
1.165000000000000063e-01	6
1.252499999999999947e+00	3
2.210000000000000020e-01	6
8.645000000000000462e-01	4
-6.494999999999999662e-01	5
9.509999999999999565e-01	4
2.419999999999999929e-01	6
2.245499999999999829e+00	5
2.388500000000000068e+00	8
1.201999999999999957e+00	4
1.234999999999999987e-01	1
4.874999999999999889e-01	7
2.530000000000000027e-01	6
1.493000000000000105e+00	9
-6.840000000000000524e-01	5
1.875999999999999890e+00	8
7.950000000000000400e-01	4
4.670000000000000262e-01	7
1.913000000000000034e+00	2
2.439999999999999947e-01	6
2.400999999999999801e+00	8
5.254999999999999671e-01	7
1.845499999999999918e+00	2
2.064999999999999891e-01	6
9.054999999999999716e-01	4
1.168500000000000094e+00	5
9.575000000000000178e-01	4
1.529999999999999971e-01	6
2.144999999999999962e-01	6
1.424500000000000099e+00	9
2.275000000000000078e-01	6
1.539999999999999980e-01	1
1.824999999999999956e-01	1
1.834500000000000020e+00	2
1.464499999999999913e+00	2
1.084999999999999964e+00	5
8.999999999999999667e-02	1
1.469999999999999973e+00	9
7.934999999999999831e-01	4
2.039499999999999869e+00	8
1.810999999999999943e+00	2
6.550000000000000266e-02	1
8.445000000000000284e-01	4
1.385999999999999899e+00	3
2.193999999999999950e+00	8
1.752499999999999947e+00	2
1.913999999999999924e+00	8
-3.384999999999999787e+00	4
-9.499999999999999556e-01	5
6.095000000000000417e-01	7
1.461000000000000076e+00	9
1.440499999999999892e+00	7
1.811500000000000110e+00	8
1.484499999999999931e+00	5
1.483999999999999986e+00	5
1.735999999999999988e+00	4
2.196000000000000174e+00	8
1.838999999999999968e+00	8
9.324999999999999956e-01	3
1.031500000000000083e+00	7
2.109999999999999876e+00	5
-1.801500000000000101e+00	4
1.522000000000000020e+00	9
9.349999999999999978e-02	1
1.372000000000000108e+00	3
2.057500000000000107e+00	8
2.409999999999999920e-01	6
1.625000000000000056e-01	1
1.074500000000000011e+00	4
1.879000000000000004e+00	5
1.380500000000000060e+00	3
6.059999999999999831e-01	7
1.806000000000000050e+00	2
8.949999999999999623e-02	6
3.049999999999999933e-02	1
1.947000000000000064e+00	2
2.054999999999999882e-01	1
1.538499999999999979e+00	2
1.253500000000000059e+00	3
2.150999999999999801e+00	8
8.780000000000000027e-01	4
9.465000000000000080e-01	4
2.295000000000000095e-01	6
1.849999999999999978e-01	6
1.510499999999999954e+00	2
1.229999999999999982e+00	3
1.967000000000000082e+00	8
1.364999999999999991e+00	9
9.150000000000000355e-01	4
2.585000000000000075e-01	6
5.659999999999999476e-01	7
1.062999999999999945e+00	5
1.059999999999999970e-01	1
2.054999999999999882e-01	6
2.306500000000000217e+00	8
1.147499999999999964e+00	9
7.375000000000000444e-01	7
-3.400000000000000244e-02	1
-5.610000000000000542e-01	5
1.638500000000000068e+00	7
1.029999999999999943e-01	1
1.536499999999999977e+00	9
2.069999999999999896e-01	6
1.374500000000000055e+00	9
1.024999999999999911e+00	4
2.200000000000000011e-01	6
2.060500000000000220e+00	5
1.900500000000000078e+00	2
1.381000000000000005e+00	2
1.225500000000000034e+00	3
7.415000000000000480e-01	7
-5.879999999999999671e-01	5
8.339999999999999636e-01	4
-8.695000000000000506e-01	5
2.479999999999999982e-01	6
8.669999999999999929e-01	4
2.237000000000000099e+00	8
1.862999999999999989e+00	2
6.905000000000000027e-01	7
5.399999999999999939e-02	1
1.366999999999999993e+00	9
2.385499999999999954e+00	8
2.125999999999999890e+00	8
-3.849999999999999950e-02	6
4.250000000000000305e-02	1
1.485500000000000043e+00	9
2.025999999999999801e+00	8
1.413000000000000034e+00	3
2.320000000000000118e-01	6
7.749999999999999944e-02	1
1.889999999999999902e+00	2
2.549999999999999836e-02	1
1.417999999999999927e+00	9
1.405000000000000027e+00	9
1.479999999999999982e+00	9
8.450000000000000566e-02	1
8.350000000000000477e-02	1
1.395000000000000018e+00	9
6.260000000000000009e-01	7
2.308499999999999996e+00	5
1.231500000000000039e+00	3
3.054999999999999938e-01	6
1.860000000000000098e+00	2
8.599999999999999312e-02	1
1.089999999999999997e-01	1
1.364999999999999991e+00	2
6.350000000000000089e-02	5
5.500000000000000028e-02	1
1.822000000000000064e+00	2
1.247500000000000053e+00	3
9.665000000000000258e-01	5
1.932500000000000107e+00	2
1.463999999999999968e+00	9
2.023000000000000131e+00	8
8.200000000000000344e-02	1
1.799500000000000099e+00	2
2.132000000000000117e+00	5
1.225500000000000034e+00	3
1.370000000000000107e+00	9
2.595000000000000084e-01	6
9.765000000000000346e-01	4
1.887000000000000011e+00	2
1.887999999999999901e+00	2
8.934999999999999609e-01	7
1.465500000000000025e+00	9
1.491500000000000048e+00	3
8.739999999999999991e-01	5
2.394499999999999851e+00	8
2.231500000000000039e+00	8
1.411999999999999922e+00	5
1.284000000000000030e+00	3
4.889999999999999902e-01	7
5.795000000000000151e-01	7
8.200000000000000344e-02	6
1.184999999999999942e-01	5
8.150000000000000300e-02	6
1.429999999999999882e-01	1
7.574999999999999512e-01	4
1.812000000000000055e+00	2
9.344999999999999973e-01	4
1.137000000000000011e+00	4
1.399999999999999911e+00	3
1.360000000000000098e+00	3
1.247999999999999998e+00	3
8.599999999999999312e-02	1
2.077500000000000124e+00	8
2.124999999999999944e-01	6
-1.299999999999999940e-02	6
1.413000000000000034e+00	3
5.149999999999999717e-02	5
5.414999999999999813e-01	7
1.634500000000000064e+00	5
6.280000000000000027e-01	7
5.020000000000000018e-01	6
8.649999999999999356e-02	1
1.318500000000000005e+00	3
1.822500000000000009e+00	2
1.907000000000000028e+00	2
2.190999999999999837e+00	8
2.137500000000000178e+00	5
2.183499999999999996e+00	8
2.330999999999999961e+00	8
1.906500000000000083e+00	2
2.362499999999999822e+00	5
1.385000000000000120e-01	1
5.254999999999999671e-01	7
8.449999999999999734e-01	4
1.084999999999999992e-01	1
1.434999999999999887e-01	1
1.499000000000000110e+00	3
9.220000000000000417e-01	4
1.379999999999999893e+00	3
2.395999999999999908e+00	8
1.881499999999999950e+00	2
8.024999999999999911e-01	4
1.950000000000000067e-01	6
2.055000000000000160e+00	8
1.303500000000000103e+00	3
1.115000000000000019e-01	1
1.167999999999999927e+00	3
5.700000000000000205e-02	1
1.052999999999999936e+00	5
2.314499999999999780e+00	8
1.467999999999999972e+00	3
2.466000000000000192e+00	5
1.526000000000000023e+00	9
1.705000000000000127e-01	6
1.350999999999999979e+00	9
5.895000000000000240e-01	7
-5.584999999999999964e-01	5
2.265000000000000069e-01	6
1.808499999999999996e+00	2
5.620000000000000551e-01	7
8.649999999999999356e-02	6
8.944999999999999618e-01	4
-3.469999999999999751e-01	5
-2.450000000000000094e-02	6
1.360500000000000043e+00	3
1.441000000000000059e+00	5
-2.934999999999999831e-01	1
1.077499999999999902e+00	4
2.121999999999999886e+00	8
1.242499999999999938e+00	3
1.360999999999999988e+00	9
2.235000000000000042e-01	6
1.990000000000000102e-01	6
1.824999999999999956e-01	6
1.390500000000000069e+00	3
-6.570000000000000284e-01	1
1.469999999999999918e-01	1
5.625000000000000000e-01	7
1.285000000000000031e-01	1
1.680000000000000104e-01	5
1.769999999999999907e-01	1
5.885000000000000231e-01	7
9.785000000000000364e-01	7
1.881499999999999950e+00	8
8.615000000000000435e-01	4
1.449999999999999956e+00	3
7.279999999999999805e-01	7
7.265000000000000346e-01	7
-9.244999999999999885e-01	5
2.347500000000000142e+00	8
1.511500000000000066e+00	2
1.612500000000000044e+00	2
2.149999999999999967e-01	1
1.650000000000000078e-01	1
1.972499999999999920e+00	8
1.266499999999999959e+00	3
1.377000000000000002e+00	3
9.569999999999999618e-01	3
2.770000000000000240e-01	5
1.879999999999999893e+00	5
1.054000000000000048e+00	7
1.960000000000000075e-01	6
1.520999999999999908e+00	3
2.110500000000000043e+00	8
2.036500000000000199e+00	8
-2.199999999999999872e-02	6
1.215999999999999970e+00	3
1.534999999999999976e-01	6
7.549999999999999767e-02	6
1.510499999999999954e+00	3
5.244999999999999662e-01	7
9.850000000000000422e-02	1
2.353000000000000203e+00	8
1.538999999999999924e+00	5
9.050000000000000266e-01	4
9.334999999999999964e-01	4
2.423000000000000043e+00	8
9.925000000000000488e-01	4
2.445500000000000007e+00	8
1.230499999999999927e+00	3
1.533500000000000085e+00	9
2.079499999999999904e+00	8
1.696499999999999897e+00	2
6.700000000000000400e-02	5
2.095000000000000195e+00	8
1.239999999999999991e-01	1
8.209999999999999520e-01	1
6.510000000000000231e-01	7
8.275000000000000133e-01	7
1.610000000000000042e-01	1
1.544999999999999984e-01	1
1.436500000000000110e+00	9
7.209999999999999742e-01	7
2.124999999999999944e-01	6
1.034499999999999975e+00	7
2.171499999999999986e+00	8
7.099999999999999367e-02	1
1.723999999999999977e+00	9
9.879999999999999893e-01	4
1.971000000000000085e+00	8
1.026999999999999913e+00	9
1.234999999999999987e-01	6
1.705500000000000016e+00	5
1.039999999999999952e-01	1
1.256999999999999895e+00	3
2.129999999999999949e-01	6
2.034999999999999865e-01	6
2.321499999999999897e+00	8
1.883999999999999897e+00	2
1.487000000000000099e+00	9
1.169499999999999984e+00	3
1.578500000000000014e+00	4
1.456499999999999906e+00	3
1.292000000000000037e+00	3
1.779999999999999916e-01	1
-8.930000000000000160e-01	5
1.096999999999999975e+00	3
1.370000000000000107e-01	1
1.490499999999999936e+00	5
7.750000000000000222e-01	4
1.629999999999999893e+00	9
5.210000000000000187e-01	7
6.039999999999999813e-01	7
1.104000000000000092e+00	3
1.340000000000000080e-01	1
5.430000000000000382e-01	7
8.225000000000000089e-01	4
1.542999999999999927e+00	8
1.362000000000000099e+00	3
1.837499999999999911e+00	2
1.090500000000000025e+00	4
6.300000000000000044e-01	7
9.360000000000000542e-01	4
5.470000000000000417e-01	7
1.019999999999999934e-01	6
-5.949999999999999734e-02	5
1.835499999999999909e+00	2
1.304000000000000048e+00	3
8.764999999999999458e-01	4
1.405000000000000027e+00	9
1.920000000000000040e-01	1
5.504999999999999893e-01	7
1.484999999999999931e-01	6
1.109499999999999931e+00	3
1.176500000000000101e+00	3
1.229999999999999982e-01	1
1.354999999999999982e+00	2
5.875000000000000222e-01	7
1.465500000000000025e+00	3
1.854999999999999982e+00	2
1.217000000000000082e+00	3
1.879000000000000004e+00	2
1.170500000000000096e+00	3
1.889000000000000012e+00	8
1.391999999999999904e+00	9
1.520499999999999963e+00	9
9.850000000000000422e-02	1
8.844999999999999529e-01	4
-1.370000000000000107e-01	5
1.385000000000000120e-01	6
2.051000000000000156e+00	8
1.990000000000000102e-01	6
2.249999999999999917e-02	1
8.990000000000000213e-01	4
1.040999999999999925e+00	4
1.140000000000000041e-01	6
-3.130000000000000004e-01	1
6.844999999999999973e-01	5
1.366999999999999993e+00	9
2.164999999999999980e-01	1
1.396500000000000075e+00	3
1.324000000000000066e+00	3
1.499999999999999944e-02	6
2.575000000000000067e-01	6
1.008499999999999952e+00	5
2.810000000000000275e-01	6
1.349999999999999985e-02	1
6.734999999999999876e-01	7
2.350999999999999979e+00	8
9.719999999999999751e-01	5
2.069999999999999896e-01	6
2.205000000000000016e-01	6
9.639999999999999680e-01	4
7.019999999999999574e-01	7
5.500000000000000028e-02	5
2.407999999999999918e+00	8
2.072999999999999954e+00	8
2.344999999999999862e-01	6
-2.750000000000000014e-02	6
7.644999999999999574e-01	4
1.600000000000000033e-01	1
1.492499999999999938e+00	9
1.818000000000000060e+00	2
1.481000000000000094e+00	9
-7.049999999999999600e-01	5
1.660000000000000087e-01	6
-6.095000000000000417e-01	5
2.649999999999999925e-02	6
1.511500000000000066e+00	3
7.594999999999999529e-01	7
2.096000000000000085e+00	8
8.585000000000000409e-01	4
2.272499999999999964e+00	8
1.280999999999999917e+00	3
1.029999999999999943e-01	1
6.450000000000000178e-01	7
1.190499999999999892e+00	5
7.854999999999999760e-01	5
1.520999999999999908e+00	9
7.550000000000000044e-01	4
-8.605000000000000426e-01	5
1.059999999999999970e-01	1
1.029500000000000082e+00	3
9.800000000000000377e-02	1
-7.934999999999999831e-01	6
1.204499999999999904e+00	3
1.284000000000000030e+00	3
4.650000000000000244e-01	7
2.314999999999999947e+00	8
1.504999999999999949e-01	1
1.499999999999999944e-01	1
1.570500000000000007e+00	2
1.915499999999999980e+00	2
2.120000000000000107e+00	8
1.739999999999999880e-01	1
-2.174999999999999989e-01	1
1.839999999999999969e-01	6
1.885000000000000009e-01	1
8.705000000000000515e-01	4
1.095000000000000001e-01	1
1.461000000000000076e+00	9
8.100000000000000255e-02	1
-3.149999999999999911e+00	4
2.388999999999999790e+00	8
8.405000000000000249e-01	4
2.344999999999999862e-01	1
1.806499999999999995e+00	2
1.407000000000000028e+00	9
1.323499999999999899e+00	3
1.769999999999999907e-01	6
1.625000000000000056e-01	6
2.575000000000000067e-01	6
1.829999999999999960e-01	1
1.802999999999999936e+00	2
2.112999999999999989e+00	5
1.114500000000000046e+00	5
1.756000000000000005e+00	2
2.147499999999999964e+00	8
1.891999999999999904e+00	2
1.412500000000000089e+00	9
2.358999999999999986e+00	8
1.975999999999999979e+00	8
9.700000000000000289e-02	5
1.953999999999999959e+00	2
1.875000000000000000e+00	2
1.812500000000000000e+00	2
1.183499999999999996e+00	4
1.482499999999999929e+00	5
2.379999999999999893e-01	6
-7.894999999999999796e-01	5
1.910500000000000087e+00	2
2.164999999999999980e-01	6
1.834999999999999964e+00	2
1.911000000000000032e+00	2
1.498499999999999943e+00	9
1.861499999999999932e+00	2
1.044999999999999957e-01	6
2.383000000000000007e+00	8
9.070000000000000284e-01	7
1.927999999999999936e+00	5
2.218999999999999861e+00	8
1.592500000000000027e+00	2
1.008000000000000007e+00	5
1.372000000000000108e+00	3
2.325000000000000122e-01	5
1.960000000000000075e-01	1
1.175000000000000044e+00	4
4.809999999999999831e-01	4
5.320000000000000284e-01	5
8.399999999999999689e-01	4
2.267999999999999794e+00	8
2.259999999999999787e+00	5
2.374499999999999833e+00	8
1.605000000000000038e-01	1
1.554999999999999993e-01	6
2.463499999999999801e+00	8
2.200499999999999901e+00	8
1.532000000000000028e+00	9
9.735000000000000320e-01	5
1.883000000000000007e+00	5
1.377000000000000002e+00	9
1.612500000000000044e+00	9
-5.214999999999999636e-01	5
1.903000000000000025e+00	2
8.830000000000000071e-01	5
2.450000000000000094e-02	1
1.391000000000000014e+00	9
1.392500000000000071e+00	9
1.778999999999999915e+00	2
2.386000000000000121e+00	8
1.838000000000000078e+00	8
2.447999999999999954e+00	8
1.517500000000000071e+00	3
1.002499999999999947e+00	5
1.719999999999999862e-01	6
8.485000000000000320e-01	4
1.374500000000000055e+00	9
2.063000000000000167e+00	8
1.879999999999999893e+00	2
1.187500000000000000e+00	4
1.844000000000000083e+00	2
2.080499999999999794e+00	8
2.590000000000000080e-01	4
1.545500000000000096e+00	5
8.899999999999999578e-02	1
2.279500000000000082e+00	8
3.699999999999999817e-02	1
1.696499999999999897e+00	2
2.192000000000000171e+00	8
1.115000000000000019e-01	1
9.775000000000000355e-01	6
2.215000000000000024e-01	6
2.350999999999999979e+00	8
1.554999999999999993e-01	1
1.947999999999999954e+00	2
1.514999999999999958e-01	1
1.481500000000000039e+00	9
9.925000000000000488e-01	4
1.475500000000000034e+00	9
2.270000000000000073e-01	6
1.459000000000000075e+00	3
-1.149999999999999981e-02	6
1.450499999999999901e+00	3
9.650000000000000244e-02	1
1.365499999999999936e+00	3
8.649999999999999356e-02	1
8.719999999999999973e-01	4
9.099999999999999756e-02	1
8.794999999999999485e-01	6
5.835000000000000187e-01	7
7.015000000000000124e-01	7
1.665000000000000091e-01	1
2.510000000000000009e-01	6
1.111499999999999932e+00	3
1.542000000000000037e+00	9
5.995000000000000329e-01	7
1.830999999999999961e+00	2
6.420000000000000151e-01	7
1.393999999999999906e+00	3
7.594999999999999529e-01	4
1.969000000000000083e+00	8
1.810999999999999943e+00	2
2.376999999999999780e+00	8
-8.964999999999999636e-01	5
1.416500000000000092e+00	5
1.241999999999999993e+00	3
-8.770000000000000018e-01	5
2.330000000000000071e+00	8
1.540000000000000036e+00	9
2.484999999999999987e-01	6
1.204499999999999904e+00	3
8.084999999999999964e-01	4
1.338000000000000078e+00	9
1.565000000000000002e-01	1
2.322000000000000064e+00	8
8.659999999999999920e-01	4
1.368999999999999995e+00	9
9.839999999999999858e-01	7
1.620000000000000051e-01	1
2.120000000000000107e+00	5
1.370000000000000107e-01	1
2.354999999999999871e-01	6
1.372500000000000053e+00	9
1.497999999999999998e+00	9
1.889000000000000012e+00	2
1.624000000000000110e+00	5
2.096499999999999808e+00	8
1.822999999999999954e+00	2
3.849999999999999950e-02	1
2.363999999999999879e+00	8
8.259999999999999565e-01	4
2.129500000000000171e+00	5
5.490000000000000435e-01	4
1.347499999999999920e+00	3
1.903000000000000025e+00	2
1.399999999999999911e+00	9
6.394999999999999574e-01	7
7.950000000000000122e-02	1
1.542000000000000037e+00	9
8.699999999999999400e-02	1
9.190000000000000391e-01	4
1.764999999999999902e-01	1
1.122999999999999998e+00	4
1.463000000000000078e+00	5
6.049999999999999822e-01	7
1.256499999999999950e+00	3
9.350000000000000533e-01	1
1.840999999999999970e+00	5
1.249000000000000110e+00	3
2.000000000000000111e-01	1
1.470499999999999918e+00	5
1.729999999999999871e-01	1
1.819499999999999895e+00	2
1.188499999999999890e+00	6
2.168499999999999872e+00	7
7.964999999999999858e-01	7
2.275000000000000078e-01	1
1.434500000000000108e+00	9
2.141000000000000014e+00	8
-5.614999999999999991e-01	5
2.201499999999999790e+00	8
5.729999999999999538e-01	7
2.255999999999999783e+00	8
2.387500000000000178e+00	8
6.414999999999999591e-01	5
1.469999999999999973e+00	9
1.529500000000000082e+00	9
2.346999999999999975e+00	8
8.984999999999999654e-01	9
2.474999999999999978e-01	6
5.935000000000000275e-01	7
8.874999999999999556e-01	4
2.240000000000000047e-01	6
1.126500000000000057e+00	4
1.042000000000000037e+00	7
2.367500000000000160e+00	8
1.066500000000000004e+00	3
1.373499999999999943e+00	9
1.919499999999999984e+00	5
2.403500000000000192e+00	8
1.258999999999999897e+00	3
5.989999999999999769e-01	7
2.334000000000000075e+00	8
2.379000000000000004e+00	8
1.034499999999999975e+00	4
-5.300000000000000266e-01	1
1.329499999999999904e+00	9
1.500000000000000000e+00	9
1.812999999999999945e+00	2
1.350999999999999979e+00	3
-2.710000000000000187e-01	5
8.709999999999999964e-01	4
1.790999999999999925e+00	2
8.309999999999999609e-01	4
1.446499999999999897e+00	3
2.069999999999999896e-01	6
1.826500000000000012e+00	3
9.400000000000000022e-02	1
1.822500000000000009e+00	2
1.988499999999999934e+00	5
1.341499999999999915e+00	3
7.950000000000000122e-02	1
1.034999999999999920e+00	4
-3.450000000000000289e-02	6
1.508999999999999897e+00	9
3.649999999999999772e-02	1
2.201499999999999790e+00	8
9.815000000000000391e-01	4
8.800000000000000044e-01	7
2.184499999999999886e+00	8
1.043500000000000094e+00	4
2.274000000000000021e+00	8
1.183999999999999941e+00	5
1.868999999999999995e+00	2
2.154999999999999971e-01	6
2.238999999999999879e+00	8
1.455500000000000016e+00	9
9.935000000000000497e-01	5
1.872000000000000108e+00	5
1.522000000000000020e+00	9
8.984999999999999654e-01	3
2.124999999999999944e-01	6
9.845000000000000417e-01	3
5.925000000000000266e-01	7
2.610000000000000098e-01	6
9.299999999999999933e-02	1
1.850000000000000089e+00	2
9.425000000000000044e-01	4
1.217000000000000082e+00	3
4.964999999999999969e-01	7
1.385499999999999954e+00	9
7.664999999999999591e-01	4
2.121999999999999886e+00	5
9.199999999999999845e-02	1
8.850000000000000089e-01	4
7.419999999999999929e-01	7
-9.800000000000000377e-02	5
1.827499999999999902e+00	2
1.526000000000000023e+00	3
1.790499999999999980e+00	2
1.439000000000000057e+00	9
2.052500000000000213e+00	8
5.344999999999999751e-01	7
1.949500000000000011e+00	8
1.915000000000000036e-01	6
2.379999999999999893e+00	8
1.531500000000000083e+00	5
5.090000000000000080e-01	6
1.439999999999999891e-01	6
1.528000000000000025e+00	9
1.079999999999999988e-01	1
9.599999999999999645e-01	4
2.305000000000000104e-01	6
7.039999999999999591e-01	7
-9.294999999999999929e-01	5
1.199999999999999956e-01	6
2.233499999999999819e+00	8
3.044999999999999929e-01	6
1.695000000000000118e-01	1
9.340000000000000524e-01	4
1.565000000000000002e-01	6
1.349499999999999922e+00	2
1.727000000000000091e+00	2
7.435000000000000497e-01	6
2.210000000000000020e-01	6
1.583499999999999908e+00	7
2.163499999999999979e+00	5
1.485500000000000043e+00	3
1.183000000000000052e+00	9
1.203500000000000014e+00	3
8.599999999999999312e-02	1
9.665000000000000258e-01	3
1.864999999999999991e+00	2
1.429999999999999938e+00	9
1.138500000000000068e+00	4
-5.765000000000000124e-01	5
1.515500000000000069e+00	9
1.881999999999999895e+00	2
1.837499999999999911e+00	2
1.549999999999999989e-01	1
2.020000000000000018e+00	8
9.659999999999999698e-01	3
1.821499999999999897e+00	2
1.140500000000000069e+00	4
8.425000000000000266e-01	4
1.729500000000000037e+00	5
8.300000000000000433e-02	6
2.241000000000000103e+00	8
1.804999999999999938e+00	2
8.924999999999999600e-01	7
1.235500000000000043e+00	3
1.101499999999999924e+00	4
2.197999999999999954e+00	8
1.554499999999999993e+00	6
2.276499999999999968e+00	5
9.795000000000000373e-01	5
8.305000000000000160e-01	4
2.130999999999999783e+00	8
1.435000000000000053e+00	9
2.226999999999999869e+00	8
2.220000000000000195e+00	8
1.833499999999999908e+00	2
1.556000000000000050e+00	2
1.443500000000000005e+00	5
7.479999999999999982e-01	4
1.681499999999999995e+00	3
1.554999999999999993e-01	6
1.241999999999999993e+00	3
1.164500000000000091e+00	3
1.519999999999999962e-01	1
2.078500000000000014e+00	8
2.045500000000000096e+00	5
2.072000000000000064e+00	8
9.024999999999999689e-01	4
2.471499999999999808e+00	8
1.807500000000000107e+00	2
2.000000000000000111e-01	6
7.699999999999999900e-02	6
1.356000000000000094e+00	3
7.419999999999999929e-01	4
2.440999999999999837e+00	8
1.324500000000000011e+00	3
1.322500000000000009e+00	3
1.479999999999999982e+00	2
5.000000000000000278e-02	6
2.252499999999999947e+00	8
2.370499999999999829e+00	8
1.933499999999999996e+00	2
1.370999999999999996e+00	3
2.040999999999999925e+00	8
1.509500000000000064e+00	5
1.400500000000000078e+00	9
1.064999999999999974e-01	1
1.651499999999999968e+00	8
2.479499999999999815e+00	8
8.080000000000000515e-01	4
1.377999999999999892e+00	3
6.410000000000000142e-01	7
2.411999999999999922e+00	8
1.455999999999999961e+00	5
1.635000000000000064e-01	1
1.713500000000000023e+00	2
1.348500000000000032e+00	3
1.905000000000000027e+00	2
1.872999999999999998e+00	5
1.625999999999999890e+00	5
2.375999999999999890e+00	8
-8.469999999999999751e-01	5
1.179999999999999938e-01	1
2.371500000000000163e+00	8
1.284000000000000030e+00	3
8.799999999999999489e-02	1
2.064999999999999891e-01	6
1.559500000000000108e+00	9
1.510499999999999954e+00	3
4.150000000000000216e-02	1
7.049999999999999600e-01	9
2.354999999999999871e-01	6
2.313000000000000167e+00	8
-3.609999999999999876e-01	5
1.508999999999999897e+00	9
6.420000000000000151e-01	7
9.290000000000000480e-01	4
9.254999999999999893e-01	4
2.635000000000000120e-01	6
1.101499999999999924e+00	4
1.940000000000000058e-01	6
1.434999999999999887e-01	6
5.584999999999999964e-01	7
5.799999999999999600e-01	7
2.180000000000000160e+00	8
2.229000000000000092e+00	8
-1.000000000000000021e-03	6
8.980000000000000204e-01	4
1.814000000000000057e+00	2
2.685000000000000164e-01	6
1.451000000000000068e+00	9
1.209500000000000020e+00	4
1.481999999999999984e+00	9
1.390000000000000124e-01	1
1.443000000000000060e+00	5
6.019999999999999796e-01	7
2.247500000000000053e+00	8
1.320500000000000007e+00	3
1.004000000000000004e+00	4
2.313499999999999890e+00	4
1.574999999999999956e+00	9
2.295000000000000095e-01	6
1.754999999999999893e+00	2
1.444999999999999896e-01	1
6.504999999999999671e-01	7
8.639999999999999902e-01	4
7.245000000000000329e-01	7
2.025000000000000133e-01	6
1.869999999999999996e-01	6
9.455000000000000071e-01	4
1.808499999999999996e+00	2
1.497999999999999998e+00	9
1.826500000000000012e+00	2
9.435000000000000053e-01	5
1.608500000000000041e+00	9
1.965500000000000025e+00	8
8.185000000000000053e-01	4
1.066000000000000059e+00	5
1.429499999999999993e+00	9
1.533500000000000085e+00	3
1.010000000000000064e-01	6
1.755500000000000060e+00	7
5.759999999999999565e-01	7
8.299999999999999600e-01	4
-1.900000000000000022e-01	1
1.838999999999999968e+00	2
1.842999999999999972e+00	2
1.519500000000000073e+00	3
1.426500000000000101e+00	3
1.483500000000000041e+00	5
3.749999999999999861e-02	1
1.189500000000000002e+00	5
1.370000000000000107e+00	3
-7.699999999999999900e-02	6
2.054499999999999993e+00	7
6.035000000000000364e-01	7
6.324999999999999512e-01	7
1.121499999999999941e+00	3
1.797500000000000098e+00	2
1.814500000000000002e+00	2
1.898500000000000076e+00	2
2.316500000000000004e+00	8
8.319999999999999618e-01	4
4.449999999999999789e-02	1
7.649999999999999856e-02	1
5.334999999999999742e-01	7
7.634999999999999565e-01	4
9.750000000000000333e-02	1
1.525500000000000078e+00	3
2.196000000000000174e+00	8
2.230000000000000038e-01	6
1.750000000000000000e+00	5
1.493999999999999995e+00	3
-6.245000000000000551e-01	5
1.887999999999999901e+00	2
1.792499999999999982e+00	2
1.920000000000000040e-01	6
1.040999999999999925e+00	7
2.358000000000000096e+00	8
5.050000000000000044e-01	7
-2.119999999999999940e-01	1
2.142999999999999794e+00	8
1.772000000000000020e+00	2
2.064000000000000057e+00	5
7.175000000000000266e-01	9
1.361499999999999932e+00	3
2.134999999999999953e-01	6
1.205999999999999961e+00	3
1.110000000000000098e+00	4
2.270000000000000073e-01	6
1.411000000000000032e+00	7
8.305000000000000160e-01	4
1.908500000000000085e+00	2
2.258000000000000007e+00	5
2.129999999999999949e-01	5
2.054999999999999882e-01	6
2.008000000000000007e+00	8
2.121500000000000163e+00	8
5.324999999999999734e-01	7
2.389499999999999957e+00	8
1.885000000000000009e-01	6
1.102000000000000091e+00	4
1.240499999999999936e+00	3
1.392500000000000071e+00	9
8.215000000000000080e-01	4
1.428500000000000103e+00	9
1.483500000000000041e+00	9
1.965000000000000080e-01	6
1.723500000000000032e+00	2
1.098999999999999977e+00	3
-9.260000000000000453e-01	5
7.724999999999999645e-01	4
7.435000000000000497e-01	5
2.398000000000000131e+00	8
3.350000000000000200e-02	1
1.794999999999999929e-01	1
1.491000000000000103e+00	3
1.367499999999999938e+00	5
7.590000000000000080e-01	4
2.321000000000000174e+00	8
1.834999999999999964e+00	8
8.425000000000000266e-01	4
1.859999999999999987e-01	1
1.475999999999999979e+00	9
-5.604999999999999982e-01	5
1.484999999999999931e-01	1
2.699999999999999969e-02	1
5.999999999999999778e-01	7
1.066000000000000059e+00	4
9.004999999999999671e-01	4
9.340000000000000524e-01	5
1.485000000000000098e+00	3
2.153000000000000025e+00	5
6.099999999999999867e-01	7
7.135000000000000231e-01	5
2.380999999999999783e+00	8
6.035000000000000364e-01	7
1.806499999999999995e+00	2
2.377499999999999947e+00	8
1.503500000000000059e+00	3
2.134500000000000064e+00	8
2.144000000000000128e+00	8
-8.120000000000000551e-01	4
8.000000000000000167e-02	1
9.014999999999999680e-01	6
1.307500000000000107e+00	5
7.299999999999999545e-02	6
9.200000000000000400e-01	4
5.494999999999999885e-01	7
2.099999999999999922e-01	6
1.471000000000000085e+00	9
2.084999999999999909e-01	6
1.368000000000000105e+00	3
2.585000000000000075e-01	6
1.759999999999999898e-01	1
-7.000000000000000146e-03	4
1.125000000000000028e-01	1
1.335000000000000075e-01	1
1.650000000000000078e-01	1
1.816000000000000059e+00	2
1.170000000000000068e-01	6
8.649999999999999356e-02	1
7.395000000000000462e-01	7
-1.047500000000000098e+00	4
1.416500000000000092e+00	5
6.334999999999999520e-01	7
8.505000000000000338e-01	4
1.387999999999999901e+00	3
1.068500000000000005e+00	3
2.500000000000000139e-02	1
1.922500000000000098e+00	7
1.304000000000000048e+00	3
1.875999999999999890e+00	2
2.418000000000000149e+00	8
9.785000000000000364e-01	5
1.985000000000000098e-01	6
4.899999999999999911e-01	7
1.239500000000000046e+00	3
1.336500000000000021e+00	9
1.504499999999999948e+00	9
1.481999999999999984e+00	3
1.370000000000000107e-01	1
1.622999999999999998e+00	6
1.415000000000000036e+00	9
2.819999999999999729e-01	6
2.012500000000000178e+00	8
8.269999999999999574e-01	4
2.390000000000000124e+00	8
1.251500000000000057e+00	3
2.010000000000000120e-01	1
1.818500000000000005e+00	2
1.372000000000000108e+00	3
1.520999999999999908e+00	3
1.476499999999999924e+00	5
8.250000000000000389e-02	1
1.534999999999999976e-01	6
4.814999999999999836e-01	7
3.130000000000000004e-01	4
2.555000000000000049e-01	6
1.265000000000000013e-01	1
1.439500000000000002e+00	3
2.383999999999999897e+00	8
6.654999999999999805e-01	7
7.345000000000000417e-01	7
8.445000000000000284e-01	4
1.391999999999999904e+00	9
1.171999999999999931e+00	4
1.484999999999999931e-01	1
7.089999999999999636e-01	7
1.607499999999999929e+00	5
1.038000000000000034e+00	4
1.799999999999999933e-01	1
1.562999999999999945e+00	9
8.599999999999999312e-02	1
1.322000000000000064e+00	3
1.362999999999999989e+00	3
1.239500000000000046e+00	3
1.841499999999999915e+00	2
1.640000000000000069e-01	6
8.400000000000000522e-02	6
1.481000000000000094e+00	9
1.316999999999999948e+00	3
1.191999999999999948e+00	4
1.897499999999999964e+00	8
1.354000000000000092e+00	9
7.239999999999999769e-01	7
8.949999999999999623e-02	6
4.850000000000000144e-02	6
1.470499999999999918e+00	9
8.894999999999999574e-01	9
1.784999999999999920e-01	1
5.659999999999999476e-01	7
1.355000000000000093e-01	1
1.421499999999999986e+00	9
1.292999999999999927e+00	7
1.650000000000000078e-01	1
-8.735000000000000542e-01	5
1.895000000000000018e-01	6
2.182500000000000107e+00	8
1.881000000000000005e+00	5
8.814999999999999503e-01	4
1.335000000000000075e-01	1
1.029999999999999943e-01	1
1.524499999999999966e+00	3
1.300000000000000044e-01	1
2.471999999999999975e+00	8
1.375999999999999890e+00	5
1.569499999999999895e+00	9
7.580000000000000071e-01	7
8.305000000000000160e-01	4
2.159999999999999976e-01	6
6.095000000000000417e-01	7
1.343499999999999917e+00	9
2.364500000000000046e+00	8
2.049999999999999878e-01	6
1.306000000000000050e+00	3
1.810000000000000053e+00	2
2.184999999999999998e-01	6
1.889499999999999957e+00	2
9.099999999999999756e-02	6
1.885499999999999954e+00	2
1.856000000000000094e+00	2
2.118500000000000050e+00	8
1.250000000000000000e-01	6
1.340999999999999970e+00	3
9.645000000000000240e-01	4
2.005000000000000115e-01	6
-3.039999999999999925e-01	6
2.850000000000000103e-02	1
1.266499999999999959e+00	3
5.785000000000000142e-01	7
1.802499999999999991e+00	2
2.132499999999999840e+00	8
8.299999999999999600e-01	4
1.514499999999999957e+00	9
1.314000000000000057e+00	3
7.854999999999999760e-01	5
5.260000000000000231e-01	1
8.365000000000000213e-01	7
1.815499999999999892e+00	2
6.410000000000000142e-01	1
9.925000000000000488e-01	4
1.544000000000000039e+00	9
1.519999999999999962e-01	1
1.049500000000000099e+00	4
2.359999999999999876e+00	8
7.994999999999999885e-01	4
8.040000000000000480e-01	7
8.279999999999999583e-01	4
1.917999999999999927e+00	5
1.379499999999999948e+00	2
8.515000000000000346e-01	7
1.272999999999999909e+00	3
2.033500000000000085e+00	5
5.350000000000000311e-01	7
1.809999999999999942e-01	6
1.130000000000000032e-01	1
7.549999999999999767e-02	1
4.149999999999999800e-01	5
1.417000000000000037e+00	9
1.776000000000000023e+00	2
-3.074999999999999956e-01	6
7.449999999999999678e-02	1
1.516499999999999959e+00	9
7.750000000000000222e-01	7
1.392500000000000071e+00	9
2.494999999999999996e-01	6
1.444999999999999896e-01	1
1.013500000000000068e+00	7
5.715000000000000080e-01	7
1.469999999999999918e-01	1
1.933000000000000052e+00	2
1.379499999999999948e+00	3
5.965000000000000302e-01	7
1.229999999999999982e+00	5
1.370000000000000107e-01	6
1.729999999999999982e+00	2
1.369499999999999940e+00	3
5.249999999999999806e-02	1
5.750000000000000250e-02	1
9.419999999999999485e-01	7
2.710000000000000187e-01	6
1.946499999999999897e+00	2
2.068000000000000060e+00	8
2.535000000000000031e-01	6
2.352500000000000036e+00	8
1.390500000000000069e+00	3
8.685000000000000497e-01	4
9.685000000000000275e-01	4
1.808499999999999996e+00	2
1.056499999999999995e+00	5
1.381499999999999950e+00	3
1.429999999999999882e-01	1
1.474499999999999922e+00	3
1.354999999999999982e+00	9
2.139999999999999958e-01	6
2.116999999999999993e+00	8
2.092499999999999805e+00	7
6.350000000000000089e-02	1
1.437999999999999945e+00	3
1.326500000000000012e+00	3
1.838500000000000023e+00	2
1.670000000000000095e-01	6
1.891000000000000014e+00	2
1.910000000000000031e-01	6
1.477000000000000091e+00	5
1.243500000000000050e+00	3
1.381499999999999950e+00	9
2.435000000000000053e+00	8
6.115000000000000435e-01	7
-5.510000000000000453e-01	5
2.200000000000000011e-01	6
1.937999999999999945e+00	2
1.588000000000000078e+00	2
6.499999999999999702e-03	6
1.784499999999999975e+00	8
1.463999999999999968e+00	9
1.838500000000000023e+00	2
2.467499999999999805e+00	8
8.984999999999999654e-01	4
1.899999999999999911e+00	2
1.875499999999999945e+00	2
1.203000000000000069e+00	3
1.019999999999999934e-01	1
1.654500000000000082e+00	2
6.059999999999999831e-01	7
2.026499999999999968e+00	8
1.538499999999999979e+00	5
7.844999999999999751e-01	2
1.986499999999999932e+00	8
2.036500000000000199e+00	8
5.829999999999999627e-01	7
1.951000000000000068e+00	8
5.765000000000000124e-01	7
-2.599999999999999881e-02	6
1.685000000000000109e-01	6
1.449000000000000066e+00	9
5.560000000000000497e-01	7
1.417499999999999982e+00	9
2.179999999999999993e-01	6
1.627000000000000002e+00	9
1.810499999999999998e+00	2
1.340500000000000025e+00	3
1.015500000000000069e+00	4
1.478499999999999925e+00	3
2.071000000000000174e+00	5
1.938499999999999890e+00	8
1.881000000000000005e+00	2
1.526499999999999968e+00	9
1.352999999999999980e+00	9
1.489999999999999991e+00	9
2.141000000000000014e+00	5
6.055000000000000382e-01	7
2.366499999999999826e+00	8
1.836500000000000021e+00	2
8.129999999999999449e-01	4
1.437999999999999945e+00	9
2.091499999999999915e+00	4
1.794000000000000039e+00	2
2.174500000000000099e+00	7
1.475500000000000034e+00	9
9.625000000000000222e-01	4
2.107499999999999929e+00	8
1.170500000000000096e+00	6
1.441500000000000004e+00	5
5.875000000000000222e-01	7
2.139499999999999957e+00	8
6.950000000000000622e-02	1
9.615000000000000213e-01	4
1.006000000000000005e+00	4
2.194999999999999840e+00	8
1.266999999999999904e+00	3
9.659999999999999698e-01	4
4.744999999999999774e-01	7
1.713500000000000023e+00	8
1.482499999999999929e+00	9
7.099999999999999367e-02	1
2.359999999999999876e-01	6
1.825499999999999901e+00	2
2.700000000000000178e-01	6
2.464500000000000135e+00	8
3.915000000000000147e-01	5
1.370999999999999996e+00	9
1.395499999999999963e+00	5
1.484499999999999931e+00	9
1.404500000000000082e+00	3
1.997500000000000053e+00	8
1.984499999999999931e+00	8
2.084999999999999909e-01	6
-6.500000000000000222e-02	5
7.749999999999999944e-02	1
1.368999999999999995e+00	3
1.834000000000000075e+00	2
2.297499999999999876e+00	8
1.357499999999999929e+00	5
1.838000000000000078e+00	2
7.880000000000000338e-01	4
1.471000000000000085e+00	5
1.344500000000000028e+00	3
9.274999999999999911e-01	4
1.749999999999999889e-01	1
2.189000000000000057e+00	8
1.305000000000000049e-01	1
1.074999999999999983e-01	1
-9.550000000000000155e-02	5
1.602999999999999980e+00	2
5.695000000000000062e-01	7
1.660500000000000087e+00	8
-1.050499999999999989e+00	5
2.374000000000000110e+00	8
-3.619999999999999885e-01	5
8.890000000000000124e-01	4
5.354999999999999760e-01	7
9.425000000000000044e-01	4
1.087499999999999911e+00	5
1.885000000000000009e+00	2
2.398499999999999854e+00	8
9.950000000000000511e-02	5
2.282000000000000028e+00	5
9.635000000000000231e-01	4
9.685000000000000275e-01	4
1.834000000000000075e+00	2
1.824999999999999956e+00	2
8.749999999999999445e-02	1
1.804999999999999938e-01	6
1.247000000000000108e+00	6
1.844999999999999973e-01	1
1.759500000000000064e+00	3
1.391000000000000014e+00	9
1.616000000000000103e+00	9
1.842999999999999972e+00	8
1.504499999999999948e+00	9
4.814999999999999836e-01	7
2.114999999999999936e-01	6
1.468499999999999917e+00	9
1.923000000000000043e+00	2
1.971000000000000085e+00	7
8.609999999999999876e-01	4
6.720000000000000417e-01	7
1.807500000000000107e+00	2
2.323999999999999844e+00	8
1.105000000000000010e-01	1
-4.909999999999999920e-01	5
4.204999999999999849e-01	6
1.520499999999999963e+00	3
2.660000000000000142e-01	6
1.376500000000000057e+00	3
1.877499999999999947e+00	5
2.034999999999999865e-01	6
1.128500000000000059e+00	5
7.799999999999999989e-02	1
1.010000000000000064e-01	1
3.019999999999999907e-01	6
1.881999999999999895e+00	2
2.112000000000000099e+00	8
2.169999999999999984e-01	6
2.069999999999999840e+00	8
1.012999999999999901e+00	9
1.877499999999999947e+00	2
2.159999999999999976e-01	6
5.150000000000000133e-01	7
1.620000000000000051e-01	1
1.492499999999999938e+00	9
1.405000000000000027e+00	3
1.895000000000000018e+00	2
9.049999999999999711e-02	6
1.410500000000000087e+00	9
9.499999999999999764e-03	6
1.441000000000000059e+00	9
1.475999999999999979e+00	9
5.590000000000000524e-01	7
1.106500000000000039e+00	5
5.594999999999999973e-01	7
5.584999999999999964e-01	7
1.866000000000000103e+00	8
1.862000000000000099e+00	2
7.784999999999999698e-01	4
4.449999999999999789e-02	1
1.527500000000000080e+00	3
1.868500000000000050e+00	2
1.504999999999999949e-01	1
1.327499999999999902e+00	3
7.714999999999999636e-01	4
4.114999999999999769e-01	1
9.585000000000000187e-01	3
1.879499999999999948e+00	2
9.750000000000000333e-02	1
1.788000000000000034e+00	2
8.699999999999999400e-02	1
6.330000000000000071e-01	7
1.835499999999999909e+00	2
1.789999999999999925e-01	1
-1.090999999999999970e+00	4
1.474499999999999922e+00	9
5.334999999999999742e-01	7
1.742499999999999938e+00	2
1.046999999999999931e+00	4
1.235500000000000043e+00	3
1.219999999999999973e+00	3
2.119000000000000217e+00	8
1.806999999999999940e+00	2
1.960000000000000075e-01	6
1.089999999999999997e-01	6
4.600000000000000200e-01	2
-5.199999999999999761e-02	6
1.524499999999999966e+00	9
1.209999999999999964e-01	6
2.605000000000000093e-01	6
9.949999999999999956e-01	7
1.433999999999999941e+00	5
1.779999999999999916e-01	1
1.372500000000000053e+00	9
1.940499999999999892e+00	2
1.411999999999999922e+00	3
1.254499999999999948e+00	3
2.400000000000000050e-02	1
1.835499999999999909e+00	2
2.302500000000000213e+00	5
2.314999999999999947e+00	8
1.010000000000000064e-01	1
1.449999999999999956e+00	5
9.550000000000000155e-02	1
1.929000000000000048e+00	2
8.235000000000000098e-01	7
2.094999999999999918e-01	5
1.313499999999999890e+00	3
1.192499999999999893e+00	4
1.479999999999999982e+00	9
2.260000000000000064e-01	6
1.270000000000000018e-01	1
1.400500000000000078e+00	9
1.068999999999999950e+00	5
1.444499999999999895e+00	9
8.750000000000000000e-01	4
1.024499999999999966e+00	5
1.517500000000000071e+00	9
6.035000000000000364e-01	7
5.299999999999999850e-02	1
1.899999999999999911e+00	2
1.506000000000000005e+00	2
1.029999999999999943e-01	6
2.326499999999999790e+00	5
5.989999999999999769e-01	7
1.897999999999999909e+00	2
1.416500000000000092e+00	9
1.581499999999999906e+00	9
6.075000000000000400e-01	7
1.229500000000000037e+00	3
5.949999999999999734e-02	6
4.615000000000000213e-01	4
8.864999999999999547e-01	4
6.380000000000000115e-01	7
1.969500000000000028e+00	8
2.059000000000000163e+00	5
1.798499999999999988e+00	2
4.864999999999999880e-01	7
8.135000000000000009e-01	4
2.245000000000000107e+00	8
5.280000000000000249e-01	7
1.880500000000000060e+00	2
2.376500000000000057e+00	8
2.463499999999999801e+00	8
2.067499999999999893e+00	5
2.302000000000000046e+00	8
1.078000000000000069e+00	7
1.965000000000000080e-01	6
1.572000000000000064e+00	5
4.929999999999999938e-01	7
2.044999999999999873e-01	6
1.750499999999999945e+00	8
1.370999999999999996e+00	3
1.631000000000000005e+00	9
9.600000000000000200e-02	1
1.050999999999999934e+00	5
1.881499999999999950e+00	2
1.229999999999999982e-01	6
8.475000000000000311e-01	4
1.950499999999999901e+00	2
2.399999999999999911e+00	8
1.881499999999999950e+00	2
-4.015000000000000235e-01	5
1.400000000000000029e-02	1
7.990000000000000435e-01	4
8.325000000000000178e-01	4
1.872000000000000108e+00	2
1.860000000000000098e+00	2
1.920000000000000040e-01	1
-8.719999999999999973e-01	5
5.360000000000000320e-01	2
-7.309999999999999831e-01	5
6.454999999999999627e-01	7
-1.949999999999999997e-02	5
9.705000000000000293e-01	4
1.167499999999999982e+00	3
2.226500000000000146e+00	8
1.098000000000000087e+00	7
2.010000000000000120e-01	6
2.400999999999999801e+00	8
9.260000000000000453e-01	4
1.053500000000000103e+00	3
2.349999999999999867e-01	1
2.367999999999999883e+00	8
1.600999999999999979e+00	9
2.174999999999999989e-01	6
1.370000000000000107e+00	9
2.362000000000000099e+00	8
1.515500000000000069e+00	9
1.530999999999999917e+00	9
1.231999999999999984e+00	3
1.500000000000000000e+00	9
-6.494999999999999662e-01	5
6.610000000000000320e-01	7
2.275000000000000078e-01	6
5.999999999999999778e-02	6
2.181999999999999940e+00	5
1.769500000000000073e+00	2
1.165000000000000036e+00	4
9.599999999999999645e-01	9
9.160000000000000364e-01	4
9.330000000000000515e-01	4
1.970000000000000084e-01	6
5.124999999999999556e-01	7
5.735000000000000098e-01	7
2.225999999999999979e+00	7
8.379999999999999671e-01	4
1.219500000000000028e+00	6
9.679999999999999716e-01	4
2.144999999999999962e-01	6
2.470499999999999918e+00	8
5.915000000000000258e-01	7
1.409999999999999920e+00	3
8.050000000000000211e-02	6
1.267500000000000071e+00	3
1.405999999999999917e+00	9
7.634999999999999565e-01	4
1.360500000000000043e+00	2
3.639999999999999902e-01	5
1.499000000000000110e+00	9
1.846999999999999975e+00	8
2.894999999999999796e-01	5
7.554999999999999494e-01	4
2.248000000000000220e+00	8
2.407999999999999918e+00	8
1.224999999999999978e-01	5
2.270000000000000073e-01	6
2.150500000000000078e+00	8
1.473999999999999977e+00	2
1.653000000000000025e+00	9
1.247500000000000053e+00	3
1.423000000000000043e+00	5
8.275000000000000133e-01	4
1.889000000000000012e+00	2
1.880500000000000060e+00	2
5.200000000000000178e-01	7
1.300000000000000044e-01	1
1.416500000000000092e+00	9
1.814999999999999947e+00	2
1.447500000000000009e+00	9
1.012999999999999901e+00	7
9.500000000000000111e-02	1
1.435499999999999998e+00	9
1.174999999999999933e-01	1
5.460000000000000409e-01	7
2.467000000000000082e+00	8
2.163499999999999979e+00	5
8.074999999999999956e-01	4
1.575000000000000011e-01	1
1.483999999999999986e+00	3
1.155999999999999917e+00	4
1.896500000000000075e+00	2
7.499999999999999722e-02	1
1.895000000000000018e-01	6
8.250000000000000389e-02	1
1.382500000000000062e+00	9
7.510000000000000009e-01	4
2.332500000000000018e+00	8
1.615499999999999936e+00	9
3.450000000000000289e-02	1
1.469500000000000028e+00	9
1.518000000000000016e+00	9
1.547500000000000098e+00	9
2.099000000000000199e+00	8
6.205000000000000515e-01	7
2.410000000000000142e+00	8
7.279999999999999805e-01	5
-1.256000000000000005e+00	5
1.628500000000000059e+00	9
1.211999999999999966e+00	4
1.029999999999999943e-01	1
-6.919999999999999485e-01	1
1.366500000000000048e+00	9
1.312999999999999945e+00	3
2.049999999999999878e-01	6
1.404500000000000082e+00	9
9.299999999999999933e-02	1
1.497000000000000108e+00	2
1.409999999999999865e-01	1
-4.685000000000000275e-01	5
7.455000000000000515e-01	6
2.054999999999999882e-01	1
1.978499999999999925e+00	5
1.189999999999999947e-01	6
1.010000000000000064e-01	1
1.501500000000000057e+00	3
1.945999999999999952e+00	8
1.620999999999999996e+00	6
2.152499999999999858e+00	8
-9.194999999999999840e-01	5
-9.290000000000000480e-01	5
2.351500000000000146e+00	8
1.915000000000000036e-01	1
2.458499999999999908e+00	8
1.332000000000000073e+00	3
1.227999999999999980e+00	8
-2.050000000000000086e-02	1
1.044000000000000039e+00	7
1.431000000000000050e+00	9
1.210499999999999909e+00	4
1.487500000000000044e+00	6
1.385000000000000009e+00	9
1.487500000000000044e+00	3
1.837499999999999911e+00	2
1.331499999999999906e+00	9
9.935000000000000497e-01	4
1.482499999999999929e+00	3
1.202499999999999902e+00	3
1.293500000000000094e+00	3
-6.965000000000000080e-01	5
8.595000000000000417e-01	4
1.820500000000000007e+00	2
1.874000000000000110e+00	5
9.809999999999999831e-01	7
7.329999999999999849e-01	5
8.250000000000000389e-02	1
9.465000000000000080e-01	3
2.235000000000000042e-01	6
5.945000000000000284e-01	7
4.799999999999999822e-01	7
1.528999999999999915e+00	9
-8.355000000000000204e-01	5
2.320000000000000118e-01	1
2.113500000000000156e+00	8
8.910000000000000142e-01	3
2.258000000000000007e+00	8
8.764999999999999458e-01	4
5.580000000000000515e-01	7
7.699999999999999900e-02	1
1.155000000000000054e-01	6
9.950000000000000511e-02	1
1.481999999999999984e+00	5
1.804499999999999993e+00	2
8.350000000000000477e-02	1
1.893499999999999961e+00	2
1.308000000000000052e+00	3
1.832999999999999963e+00	2
1.251500000000000057e+00	3
1.465000000000000080e+00	9
2.168000000000000149e+00	8
7.035000000000000142e-01	7
2.010000000000000120e-01	1
-2.399000000000000021e+00	4
1.905499999999999972e+00	2
-6.774999999999999911e-01	5
1.898500000000000076e+00	2
2.037999999999999812e+00	8
1.915000000000000036e-01	6
1.449500000000000011e+00	9
8.090000000000000524e-01	4
2.159999999999999976e-01	6
1.403499999999999970e+00	9
2.379999999999999893e-01	6
-3.619999999999999885e-01	6
6.430000000000000160e-01	7
1.816999999999999948e+00	8
2.575000000000000067e-01	6
2.041999999999999815e+00	8
1.531500000000000083e+00	9
9.194999999999999840e-01	4
2.075000000000000178e+00	5
1.111499999999999932e+00	5
6.814999999999999947e-01	7
1.150000000000000050e-01	1
-7.000000000000000666e-02	5
6.065000000000000391e-01	7
1.333499999999999908e+00	9
1.137000000000000011e+00	4
5.514999999999999902e-01	7
1.682500000000000107e+00	2
1.372500000000000053e+00	9
8.899999999999999578e-02	1
2.012999999999999901e+00	8
2.392500000000000071e+00	8
1.328500000000000014e+00	9
1.883000000000000007e+00	2
1.562000000000000055e+00	5
8.265000000000000124e-01	4
1.322500000000000009e+00	3
2.149999999999999828e-02	1
4.700000000000000011e-02	6
1.435999999999999943e+00	9
1.518499999999999961e+00	5
4.324999999999999956e-01	6
2.044999999999999873e-01	6
1.690499999999999892e+00	8
1.544999999999999984e-01	1
1.584500000000000020e+00	5
1.028499999999999970e+00	7
9.400000000000000022e-02	1
5.789999999999999591e-01	7
1.290000000000000036e+00	3
1.883499999999999952e+00	2
1.635499999999999954e+00	9
5.889999999999999680e-01	7
1.463999999999999968e+00	9
8.405000000000000249e-01	7
1.843499999999999917e+00	2
2.320000000000000118e-01	6
1.462499999999999911e+00	5
5.064999999999999503e-01	7
2.184999999999999998e-01	6
7.950000000000000122e-02	6
6.015000000000000346e-01	7
2.245000000000000051e-01	6
7.860000000000000320e-01	4
1.004499999999999948e+00	7
1.221500000000000030e+00	3
3.654999999999999916e-01	1
1.044999999999999957e-01	1
2.222500000000000142e+00	8
8.195000000000000062e-01	9
1.852000000000000091e+00	2
7.720000000000000195e-01	4
1.330000000000000071e-01	1
1.141000000000000014e+00	4
1.488499999999999934e+00	6
2.097999999999999865e+00	8
8.235000000000000098e-01	4
8.599999999999999867e-01	4
9.254999999999999893e-01	7
9.199999999999999845e-02	1
1.060000000000000053e+00	9
5.490000000000000435e-01	7
-1.265000000000000013e-01	1
2.379500000000000171e+00	5
1.000999999999999890e+00	7
7.489999999999999991e-01	4
1.507500000000000062e+00	9
1.270000000000000018e-01	1
8.569999999999999840e-01	4
9.385000000000000009e-01	5
2.184999999999999998e-01	5
1.370999999999999996e+00	9
1.931999999999999940e+00	8
8.615000000000000435e-01	7
1.538000000000000034e+00	9
1.344999999999999973e+00	3
1.565000000000000002e-01	1
1.944499999999999895e+00	2
1.223000000000000087e+00	3
6.029999999999999805e-01	7
2.362000000000000099e+00	8
2.462499999999999911e+00	8
-2.500000000000000052e-03	1
-6.770000000000000462e-01	5
6.145000000000000462e-01	6
1.520499999999999963e+00	9
8.215000000000000080e-01	4
-8.004999999999999893e-01	5
1.433999999999999941e+00	9
2.750000000000000222e-01	6
2.160499999999999865e+00	8
1.479500000000000037e+00	3
2.625000000000000111e-01	6
1.306499999999999995e+00	3
9.505000000000000115e-01	7
1.454999999999999905e-01	1
1.144500000000000073e+00	4
1.434500000000000108e+00	9
1.459999999999999964e+00	9
1.818500000000000005e+00	2
1.400000000000000029e-02	1
8.315000000000000169e-01	4
7.904999999999999805e-01	4
2.159999999999999976e-01	1
5.254999999999999671e-01	7
5.885000000000000231e-01	7
6.674999999999999822e-01	7
8.899999999999999578e-02	1
2.016999999999999904e+00	8
1.500499999999999945e+00	9
1.881999999999999895e+00	8
1.356999999999999984e+00	9
1.985000000000000098e-01	6
1.377000000000000002e+00	9
2.144999999999999962e-01	6
1.479000000000000092e+00	9
1.907499999999999973e+00	2
1.868999999999999995e+00	2
1.250000000000000000e-01	1
8.179999999999999494e-01	7
5.474999999999999867e-01	7
6.434999999999999609e-01	5
1.506499999999999950e+00	5
1.054499999999999993e+00	3
1.486499999999999932e+00	9
1.269500000000000073e+00	3
1.719999999999999862e-01	6
2.192000000000000171e+00	8
1.434999999999999887e-01	1
1.219000000000000083e+00	3
8.894999999999999574e-01	7
8.649999999999999356e-02	1
2.255000000000000060e-01	6
2.215000000000000024e-01	6
7.205000000000000293e-01	7
2.414999999999999925e-01	6
1.255500000000000060e+00	3
1.600000000000000033e-01	1
1.337499999999999911e+00	3
8.669999999999999929e-01	4
2.149999999999999967e-01	5
1.144500000000000073e+00	4
2.241499999999999826e+00	8
1.268999999999999906e+00	3
1.407999999999999918e+00	9
2.426499999999999879e+00	8
2.364999999999999880e-01	6
6.885000000000000009e-01	7
1.368999999999999995e+00	9
1.588000000000000078e+00	5
1.127000000000000002e+00	4
1.413999999999999924e+00	9
1.481000000000000094e+00	2
6.149999999999999911e-02	1
1.353499999999999925e+00	9
1.439000000000000057e+00	9
3.300000000000000155e-02	1
1.881499999999999950e+00	2
1.940000000000000058e-01	6
1.844000000000000083e+00	2
1.010000000000000009e+00	4
1.364000000000000101e+00	9
1.794499999999999984e+00	2
1.045500000000000096e+00	7
1.102999999999999980e+00	9
2.775000000000000244e-01	6
6.610000000000000320e-01	7
1.225999999999999979e+00	3
1.903999999999999915e+00	8
5.130000000000000115e-01	7
5.975000000000000311e-01	7
1.294000000000000039e+00	3
1.778499999999999970e+00	2
1.452499999999999902e+00	5
2.364999999999999880e-01	6
2.063000000000000167e+00	8
2.096999999999999975e+00	4
1.951999999999999957e+00	2
2.285000000000000087e-01	6
1.526000000000000023e+00	9
1.566500000000000004e+00	9
1.930000000000000049e-01	1
1.915000000000000036e-01	1
8.305000000000000160e-01	4
5.470000000000000417e-01	7
1.483999999999999986e+00	2
5.394999999999999796e-01	7
-3.795000000000000040e-01	5
3.599999999999999728e-02	1
8.205000000000000071e-01	4
1.419999999999999929e+00	2
1.858000000000000096e+00	2
1.069999999999999979e-01	1
1.908500000000000085e+00	2
7.890000000000000346e-01	4
2.019499999999999851e+00	7
1.411000000000000032e+00	3
1.933499999999999996e+00	2
1.536000000000000032e+00	5
1.905000000000000027e-01	6
7.549999999999999767e-02	1
-7.810000000000000275e-01	5
1.370000000000000107e+00	9
1.812999999999999945e+00	2
1.885999999999999899e+00	2
8.749999999999999445e-02	6
-7.495000000000000551e-01	5
-9.300000000000000488e-01	5
1.340000000000000080e+00	3
2.395500000000000185e+00	8
1.378500000000000059e+00	9
2.056500000000000217e+00	8
6.260000000000000009e-01	7
1.520999999999999908e+00	9
1.935999999999999943e+00	5
1.447999999999999954e+00	9
2.240499999999999936e+00	5
1.540499999999999980e+00	5
1.202499999999999902e+00	4
8.215000000000000080e-01	4
8.999999999999999320e-03	1
2.139999999999999958e-01	6
7.335000000000000409e-01	7
1.522000000000000020e+00	9
1.915000000000000036e+00	2
9.575000000000000178e-01	4
1.496499999999999941e+00	9
1.885499999999999954e+00	2
2.114999999999999936e-01	6
1.246499999999999941e+00	3
8.749999999999999445e-02	1
1.497000000000000108e+00	3
1.232499999999999929e+00	3
1.885499999999999954e+00	2
1.465000000000000080e+00	5
5.839999999999999636e-01	7
-3.143499999999999961e+00	4
5.364999999999999769e-01	7
1.622000000000000108e+00	5
1.612500000000000044e+00	5
8.100000000000000255e-02	1
2.263500000000000068e+00	8
1.314000000000000057e+00	3
5.310000000000000275e-01	7
-2.500000000000000000e-01	6
1.839999999999999969e-01	6
5.949999999999999734e-01	7
-1.194499999999999895e+00	5
1.729999999999999871e-01	1
1.219999999999999973e+00	3
1.558000000000000052e+00	9
1.010000000000000009e+00	3
1.810999999999999943e+00	2
2.044999999999999873e-01	6
1.832000000000000073e+00	8
1.670000000000000095e-01	1
1.777500000000000080e+00	2
1.721500000000000030e+00	2
1.389999999999999902e+00	9
1.854999999999999982e+00	2
1.481000000000000094e+00	9
8.094999999999999973e-01	4
1.143999999999999906e+00	4
3.450000000000000289e-02	6
1.179999999999999938e-01	1
1.072500000000000009e+00	2
1.393499999999999961e+00	9
1.822000000000000064e+00	2
1.244999999999999996e-01	1
1.625000000000000000e+00	6
1.425000000000000044e+00	9
9.825000000000000400e-01	3
1.600500000000000034e+00	8
5.600000000000000533e-01	7
2.351500000000000146e+00	8
1.883999999999999897e+00	2
6.009999999999999787e-01	7
2.285000000000000087e-01	1
-2.000000000000000111e-01	1
2.088499999999999801e+00	8
1.507500000000000062e+00	9
7.449999999999999956e-01	4
1.852500000000000036e+00	2
-7.295000000000000373e-01	5
2.399999999999999911e-01	6
1.433999999999999941e+00	9
1.862500000000000044e+00	2
7.385000000000000453e-01	7
1.103499999999999925e+00	4
5.434999999999999831e-01	7
1.435000000000000053e+00	9
1.504999999999999949e-01	6
1.219999999999999973e+00	3
8.129999999999999449e-01	4
8.010000000000000453e-01	4
-1.474999999999999922e-01	5
5.249999999999999806e-02	6
1.430500000000000105e+00	9
1.497500000000000053e+00	5
1.792999999999999927e+00	2
1.719500000000000028e+00	2
1.913999999999999924e+00	2
2.375500000000000167e+00	8
1.256499999999999950e+00	3
1.064999999999999974e-01	1
7.449999999999999678e-02	1
2.023499999999999854e+00	8
2.117999999999999883e+00	5
1.064999999999999974e-01	1
6.610000000000000320e-01	7
2.169999999999999984e-01	6
2.425499999999999989e+00	5
1.904500000000000082e+00	2
7.449999999999999956e-01	4
1.475999999999999979e+00	9
1.348000000000000087e+00	3
9.529999999999999583e-01	4
1.209999999999999964e-01	1
1.170000000000000068e-01	1
1.320000000000000062e-01	1
2.505000000000000004e-01	6
5.350000000000000311e-01	7
1.781500000000000083e+00	2
1.481000000000000094e+00	9
-2.414999999999999925e-01	1
1.114000000000000101e+00	5
1.385999999999999899e+00	9
2.024500000000000188e+00	5
6.300000000000000044e-02	6
1.183000000000000052e+00	5
1.552999999999999936e+00	5
8.659999999999999920e-01	4
1.409499999999999975e+00	3
5.705000000000000071e-01	7
9.094999999999999751e-01	9
1.247000000000000108e+00	3
2.104999999999999927e-01	6
1.883999999999999897e+00	2
2.403000000000000025e+00	8
6.510000000000000231e-01	7
1.469999999999999973e+00	9
1.357499999999999929e+00	9
5.909999999999999698e-01	7
1.514999999999999902e+00	9
1.407499999999999973e+00	9
9.349999999999999978e-02	1
2.143499999999999961e+00	8
1.264999999999999902e+00	2
1.764999999999999902e+00	2
1.377499999999999947e+00	9
1.516000000000000014e+00	9
1.413000000000000034e+00	9
9.775000000000000355e-01	7
2.380500000000000060e+00	8
6.005000000000000338e-01	7
1.369499999999999940e+00	9
5.299999999999999850e-02	1
1.358999999999999986e+00	3
1.780000000000000027e+00	2
1.524000000000000021e+00	5
4.849999999999999867e-01	7
-3.150000000000000022e-01	5
1.782000000000000028e+00	2
9.525000000000000133e-01	3
2.189000000000000057e+00	8
7.435000000000000497e-01	7
1.115499999999999936e+00	3
8.000000000000000167e-02	1
1.350500000000000034e+00	9
4.864999999999999880e-01	7
1.625000000000000056e-01	1
2.285000000000000087e-01	6
1.375000000000000000e+00	9
1.794499999999999984e+00	2
6.069999999999999840e-01	7
1.258999999999999897e+00	3
3.114999999999999991e-01	6
9.349999999999999978e-02	1
5.404999999999999805e-01	7
1.514499999999999957e+00	9
1.191500000000000004e+00	3
2.069999999999999896e-01	6
1.534000000000000030e+00	3
5.149999999999999717e-02	1
1.534999999999999976e-01	6
1.490499999999999936e+00	3
8.465000000000000302e-01	4
1.235000000000000098e+00	3
1.917499999999999982e+00	2
2.240000000000000047e-01	6
1.434999999999999887e-01	1
1.409499999999999975e+00	9
8.125000000000000000e-01	4
1.886500000000000066e+00	2
5.659999999999999476e-01	7
2.379999999999999893e+00	8
1.800499999999999989e+00	5
1.786499999999999977e+00	2
7.730000000000000204e-01	4
9.705000000000000293e-01	4
1.378500000000000059e+00	9
1.422500000000000098e+00	9
1.300499999999999989e+00	3
-9.409999999999999476e-01	5
1.377999999999999892e+00	3
1.911000000000000032e+00	2
1.262000000000000011e+00	3
2.407500000000000195e+00	8
1.524999999999999911e+00	3
-8.894999999999999574e-01	5
1.182500000000000107e+00	3
7.960000000000000409e-01	4
9.264999999999999902e-01	4
1.609499999999999931e+00	3
1.487000000000000099e+00	9
1.946499999999999897e+00	8
2.265000000000000069e-01	6
1.362999999999999989e+00	9
1.828000000000000069e+00	2
4.824999999999999845e-01	7
1.469000000000000083e+00	9
1.474999999999999922e-01	1
1.221999999999999975e+00	5
1.014999999999999902e+00	7
1.074999999999999956e+00	5
1.338500000000000023e+00	3
1.310999999999999943e+00	3
4.499999999999999660e-03	6
9.395000000000000018e-01	4
4.595000000000000195e-01	2
5.154999999999999583e-01	7
1.485500000000000043e+00	9
-3.350000000000000200e-02	5
-6.909999999999999476e-01	1
1.443500000000000005e+00	5
7.704999999999999627e-01	4
7.764999999999999680e-01	7
1.890000000000000013e-01	6
1.884500000000000064e+00	2
1.905000000000000027e+00	2
7.864999999999999769e-01	4
-1.181499999999999995e+00	5
1.069999999999999979e-01	1
3.315000000000000169e-01	5
5.260000000000000231e-01	5
6.250000000000000000e-01	7
2.800000000000000266e-01	6
2.251999999999999780e+00	8
8.449999999999999734e-01	4
9.519999999999999574e-01	4
1.404500000000000082e+00	2
1.693000000000000060e+00	8
-2.255000000000000060e-01	1
1.783500000000000085e+00	2
1.575499999999999901e+00	2
8.100000000000000255e-02	1
1.504499999999999948e+00	5
1.900000000000000022e-01	6
1.156500000000000083e+00	3
3.300000000000000155e-02	1
1.866500000000000048e+00	2
2.242500000000000160e+00	5
1.340000000000000080e-01	1
1.398500000000000076e+00	9
1.229999999999999982e+00	3
1.993999999999999995e+00	8
5.594999999999999973e-01	7
1.864999999999999991e-01	1
2.447999999999999954e+00	8
1.436500000000000110e+00	9
1.485999999999999988e+00	9
1.006999999999999895e+00	5
1.839999999999999969e-01	6
1.858500000000000041e+00	2
-1.400000000000000029e-02	1
5.800000000000000294e-02	1
1.834500000000000020e+00	2
5.390000000000000346e-01	7
2.814999999999999725e-01	5
-1.186500000000000110e+00	5
